4.00973 69
4.04865 69
4.08757 64
4.12649 64
4.16541 62
4.20433 60
4.24325 60
4.28217 56
4.32109 57
4.36001 55
4.39893 54
4.43785 52
4.47677 51
4.515685 52
4.5546 49
4.59352 47
4.63244 46
4.67136 46
4.71028 44
4.7492 42
4.78812 43
4.82704 41
4.86596 41
4.90488 40
4.9438 39
4.98272 38
5.02164 38
5.06056 38
5.09948 36
5.1384 36
5.17732 35
5.21624 36
5.25516 33
5.29408 33
5.333 33
5.37192 33
5.41084 33
5.44976 33
5.48868 31
5.527595 32
5.56651 30
5.60543 29
5.64435 29
5.68327 30
5.72219 30
5.76111 28
5.80003 29
5.83895 28
5.87787 28
5.91679 27
5.95571 27
5.99463 26
6.03355 27
6.07247 29
6.11139 28
6.15031 28
6.18923 27
6.22815 27
6.26707 27
6.30599 26
6.34491 26
6.38383 26
6.42275 25
6.46167 24
6.50059 26
6.539505 26
6.57842 25
6.61734 25
6.65626 24
6.69518 24
6.7341 24
6.77302 25
6.81194 24
6.85086 24
6.88978 24
6.9287 24
6.96762 24
7.00654 23
7.04546 24
7.08438 24
7.1233 24
7.16222 23
7.20114 23
7.24006 22
7.27898 23
7.3179 23
7.35682 23
7.39574 23
7.43466 23
7.47358 24
7.5125 23
7.551415 24
7.59033 23
7.62925 24
7.66817 23
7.70709 23
7.74601 23
7.78493 22
7.82385 23
7.86277 23
7.90169 23
7.94061 23
7.97953 23
8.01845 23
8.05737 23
8.09629 22
8.13521 23
8.17413 23
8.21305 23
8.25197 23
8.29089 24
8.32981 23
8.36873 23
8.40765 23
8.44657 23
8.48549 23
8.52441 22
8.563325 23
8.60224 23
8.64116 22
8.68008 23
8.719 23
8.75792 23
8.79684 22
8.83576 22
8.87468 23
8.9136 23
8.95252 23
8.99144 22
9.03036 23
9.06928 23
9.1082 23
9.14712 22
9.18604 23
9.22496 23
9.26388 23
9.3028 23
9.34172 23
9.38064 24
9.41956 22
9.45848 23
9.4974 22
9.53632 23
9.575235 22
9.61415 23
9.65307 22
9.69199 22
9.73091 22
9.76983 22
9.80875 22
9.84767 22
9.88659 22
9.92551 23
9.96443 22
10.00335 22
10.04227 22
10.08119 22
10.12011 22
10.15903 22
10.19795 22
10.23687 21
10.27579 22
10.31471 21
10.35363 21
10.39255 22
10.43147 22
10.47039 22
10.50931 22
10.54823 21
10.587145 21
10.62606 22
10.66498 20
10.7039 21
10.74282 20
10.78174 21
10.82066 21
10.85958 21
10.8985 21
10.93742 20
10.97634 21
11.01526 21
11.05418 19
11.0931 19
11.13202 19
11.17094 19
11.20986 20
11.24878 20
11.2877 19
11.32662 20
11.36554 19
11.40446 20
11.44338 20
11.4823 19
11.52122 19
11.56014 19
11.599055 19
11.63797 18
11.67689 19
11.71581 19
11.75473 18
11.79365 19
11.83257 18
11.87149 18
11.91041 19
11.94933 18
11.98825 19
12.02717 18
12.06609 17
12.10501 18
12.14393 18
12.18285 18
12.22177 17
12.26069 18
12.29961 17
12.33853 17
12.37745 18
12.41637 18
12.45529 18
12.49421 18
12.53313 17
12.57205 18
12.610965 17
12.64988 18
12.6888 17
12.72772 16
12.76664 17
12.80556 18
12.84448 17
12.8834 17
12.92232 17
12.96124 17
13.00016 17
13.03908 17
13.078 18
13.11692 17
13.15584 16
13.19476 17
13.23368 17
13.2726 17
13.31152 17
13.35044 16
13.38936 16
13.42828 17
13.4672 16
13.50612 16
13.54504 17
13.58396 16
13.622875 16
13.66179 17
13.70071 17
13.73963 16
13.77855 17
13.81747 17
13.85639 17
13.89531 16
13.93423 16
13.97315 16
14.01207 16
14.05099 17
14.08991 16
14.12883 16
14.16775 16
14.20667 16
14.24559 16
14.28451 16
14.32343 15
14.36235 17
14.40127 16
14.44019 16
14.47911 16
14.51803 17
14.55695 16
14.59587 16
14.63479 16
14.6737 16
14.71262 15
14.75154 17
14.79046 16
14.82938 15
14.8683 16
14.90722 16
14.94614 16
14.98506 15
15.02398 16
15.0629 16
15.10182 16
15.14074 15
15.17966 16
15.21858 16
15.2575 16
15.29642 16
15.33534 14
15.37426 16
15.41318 15
15.4521 16
15.49102 14
15.52994 16
15.56886 16
15.60778 15
15.6467 15
15.68561 15
15.72453 16
15.76345 15
15.80237 15
15.84129 16
15.88021 15
15.91913 16
15.95805 16
15.99697 14
16.03589 16
16.07481 15
16.11373 15
16.15265 15
16.19157 14
16.23049 16
16.26941 14
16.30833 16
16.34725 15
16.38617 16
16.42509 15
16.46401 16
16.50293 16
16.54185 15
16.58077 15
16.61969 14
16.65861 14
16.69752 15
16.73644 15
16.77536 16
16.81428 15
16.8532 14
16.89212 15
16.93104 15
16.96996 14
17.00888 16
17.0478 15
17.08672 14
17.12564 15
17.16456 14
17.20348 15
17.2424 14
17.28132 16
17.32024 14
17.35916 15
17.39808 14
17.437 16
17.47592 15
17.51484 15
17.55376 15
17.59268 14
17.6316 14
17.67052 16
17.70943 14
17.74835 15
17.78727 14
17.82619 15
17.86511 14
17.90403 15
17.94295 16
17.98187 14
18.02079 15
18.05971 14
18.09863 14
18.13755 16
18.17647 15
18.21539 15
18.25431 14
18.29323 13
18.33215 14
18.37107 15
18.40999 14
18.44891 14
18.48783 14
18.52675 14
18.56567 15
18.60459 15
18.64351 16
18.68243 15
18.72134 15
18.76026 16
18.79918 17
18.8381 16
18.87702 14
18.91594 16
18.95486 14
18.99378 15
19.0327 15
19.07162 14
19.11054 16
19.14946 15
19.18838 14
19.2273 16
19.26622 15
19.30514 14
19.34406 16
19.38298 16
19.4219 16
19.46082 16
19.49974 15
19.53866 16
19.57758 16
19.6165 16
19.65542 16
19.69434 16
19.73325 16
19.77217 17
19.81109 16
19.85001 16
19.88893 17
19.92785 17
19.96677 18
20.00569 19
20.04461 19
20.08353 23
20.12245 25
20.16137 28
20.20029 27
20.23921 28
20.27813 28
20.31705 31
20.35597 32
20.39489 34
20.43381 37
20.47273 43
20.51165 50
20.55057 67
20.58949 83
20.62841 103
20.66733 148
20.70625 283
20.74516 689
20.78408 1642
20.823 2446
20.86192 1696
20.90084 761
20.93976 211
20.97868 111
21.0176 88
21.05652 68
21.09544 51
21.13436 42
21.17328 36
21.2122 33
21.25112 31
21.29004 29
21.32896 28
21.36788 26
21.4068 25
21.44572 24
21.48464 23
21.52356 22
21.56248 23
21.6014 22
21.64032 21
21.67924 21
21.71816 20
21.75707 19
21.79599 20
21.83491 21
21.87383 20
21.91275 19
21.95167 21
21.99059 19
22.02951 19
22.06843 18
22.10735 18
22.14627 17
22.18519 17
22.22411 18
22.26303 18
22.30195 17
22.34087 17
22.37979 17
22.41871 17
22.45763 17
22.49655 17
22.53547 17
22.57439 17
22.61331 17
22.65223 16
22.69115 17
22.73007 18
22.76898 17
22.8079 16
22.84682 17
22.88574 17
22.92466 17
22.96358 16
23.0025 17
23.04142 16
23.08034 16
23.11926 16
23.15818 16
23.1971 16
23.23602 15
23.27494 16
23.31386 16
23.35278 16
23.3917 16
23.43062 16
23.46954 17
23.50846 16
23.54738 16
23.5863 16
23.62522 17
23.66414 16
23.70306 17
23.74198 16
23.780895 16
23.81981 17
23.85873 17
23.89765 18
23.93657 20
23.97549 21
24.01441 21
24.05333 18
24.09225 17
24.13117 17
24.17009 17
24.20901 16
24.24793 16
24.28685 17
24.32577 15
24.36469 16
24.40361 17
24.44253 16
24.48145 16
24.52037 16
24.55929 16
24.59821 16
24.63713 17
24.67605 16
24.71497 17
24.75389 17
24.792805 17
24.83172 18
24.87064 17
24.90956 18
24.94848 18
24.9874 18
25.02632 18
25.06524 18
25.10416 18
25.14308 19
25.182 19
25.22092 19
25.25984 19
25.29876 19
25.33768 19
25.3766 22
25.41552 22
25.45444 22
25.49336 23
25.53228 23
25.5712 26
25.61012 30
25.64904 38
25.68796 49
25.72688 57
25.7658 62
25.804715 64
25.84363 66
25.88255 69
25.92147 71
25.96039 72
25.99931 76
26.03823 80
26.07715 85
26.11607 92
26.15499 100
26.19391 115
26.23283 136
26.27175 171
26.31067 232
26.34959 311
26.38851 411
26.42743 581
26.46635 965
26.50527 2021
26.54419 4996
26.58311 10000
26.62203 9941
26.66095 6388
26.69987 3274
26.73879 920
26.77771 506
26.816625 363
26.85554 265
26.89446 193
26.93338 146
26.9723 117
27.01122 101
27.05014 89
27.08906 82
27.12798 74
27.1669 68
27.20582 63
27.24474 59
27.28366 56
27.32258 53
27.3615 49
27.40042 48
27.43934 46
27.47826 45
27.51718 42
27.5561 40
27.59502 40
27.63394 39
27.67286 38
27.71178 38
27.7507 36
27.78962 35
27.828535 33
27.86745 33
27.90637 32
27.94529 30
27.98421 30
28.02313 30
28.06205 30
28.10097 28
28.13989 29
28.17881 27
28.21773 27
28.25665 26
28.29557 26
28.33449 25
28.37341 24
28.41233 23
28.45125 24
28.49017 24
28.52909 23
28.56801 24
28.60693 23
28.64585 23
28.68477 24
28.72369 22
28.76261 23
28.80153 21
28.840445 21
28.87936 21
28.91828 19
28.9572 19
28.99612 19
29.03504 18
29.07396 18
29.11288 18
29.1518 18
29.19072 17
29.22964 17
29.26856 18
29.30748 18
29.3464 17
29.38532 17
29.42424 17
29.46316 16
29.50208 17
29.541 16
29.57992 16
29.61884 16
29.65776 15
29.69668 15
29.7356 16
29.77452 15
29.81344 14
29.852355 15
29.89127 14
29.93019 14
29.96911 14
30.00803 14
30.04695 14
30.08587 14
30.12479 14
30.16371 13
30.20263 14
30.24155 14
30.28047 14
30.31939 14
30.35831 14
30.39723 14
30.43615 14
30.47507 14
30.51399 13
30.55291 14
30.59183 13
30.63075 14
30.66967 14
30.70859 14
30.74751 14
30.78643 15
30.82535 16
30.864265 16
30.90318 15
30.9421 15
30.98102 15
31.01994 14
31.05886 14
31.09778 14
31.1367 13
31.17562 13
31.21454 14
31.25346 13
31.29238 13
31.3313 13
31.37022 13
31.40914 13
31.44806 14
31.48698 13
31.5259 13
31.56482 13
31.60374 13
31.64266 13
31.68158 13
31.7205 13
31.75942 13
31.79834 13
31.83726 12
31.876175 13
31.91509 12
31.95401 13
31.99293 12
32.03185 12
32.07077 13
32.10969 12
32.14861 12
32.18753 13
32.22645 13
32.26537 13
32.30429 12
32.34321 12
32.38213 13
32.42105 12
32.45997 12
32.49889 13
32.53781 13
32.57673 13
32.61565 13
32.65457 13
32.69349 13
32.73241 14
32.77133 14
32.81025 13
32.84917 14
32.888085 14
32.927 14
32.96592 14
33.00484 14
33.04376 16
33.08268 14
33.1216 14
33.16052 14
33.19944 14
33.23836 14
33.27728 13
33.3162 13
33.35512 13
33.39404 13
33.43296 12
33.47188 13
33.5108 13
33.54972 12
33.58864 13
33.62756 12
33.66648 12
33.7054 12
33.74432 13
33.78324 12
33.82216 12
33.86108 12
33.9 12
33.93891 12
33.97783 12
34.01675 12
34.05567 13
34.09459 12
34.13351 12
34.17243 12
34.21135 12
34.25027 12
34.28919 12
34.32811 12
34.36703 12
34.40595 12
34.44487 12
34.48379 12
34.52271 12
34.56163 12
34.60055 12
34.63947 12
34.67839 12
34.71731 12
34.75623 12
34.79515 13
34.83407 12
34.87299 13
34.91191 13
34.95082 12
34.98974 13
35.02866 12
35.06758 12
35.1065 12
35.14542 13
35.18434 13
35.22326 13
35.26218 14
35.3011 14
35.34002 14
35.37894 14
35.41786 15
35.45678 16
35.4957 17
35.53462 16
35.57354 16
35.61246 16
35.65138 16
35.6903 16
35.72922 15
35.76814 16
35.80706 17
35.84598 16
35.8849 16
35.92382 16
35.96273 17
36.00165 19
36.04057 18
36.07949 19
36.11841 21
36.15733 22
36.19625 26
36.23517 32
36.27409 39
36.31301 52
36.35193 72
36.39085 121
36.42977 252
36.46869 524
36.50761 715
36.54653 478
36.58545 387
36.62437 282
36.66329 99
36.70221 54
36.74113 41
36.78005 32
36.81897 26
36.85789 23
36.89681 21
36.93573 19
36.97464 19
37.01356 18
37.05248 18
37.0914 17
37.13032 16
37.16924 16
37.20816 16
37.24708 15
37.286 16
37.32492 15
37.36384 14
37.40276 14
37.44168 14
37.4806 14
37.51952 14
37.55844 14
37.59736 12
37.63628 14
37.6752 14
37.71412 14
37.75304 15
37.79196 13
37.83088 13
37.8698 14
37.90872 14
37.94764 13
37.98655 14
38.02547 15
38.06439 15
38.10331 15
38.14223 16
38.18115 15
38.22007 15
38.25899 14
38.29791 14
38.33683 15
38.37575 15
38.41467 15
38.45359 15
38.49251 15
38.53143 14
38.57035 15
38.60927 17
38.64819 16
38.68711 16
38.72603 17
38.76495 16
38.80387 17
38.84279 17
38.88171 17
38.92063 18
38.95955 18
38.99846 19
39.03738 21
39.0763 23
39.11522 26
39.15414 32
39.19306 38
39.23198 51
39.2709 67
39.30982 112
39.34874 226
39.38766 466
39.42658 683
39.4655 465
39.50442 351
39.54334 324
39.58226 137
39.62118 59
39.6601 43
39.69902 34
39.73794 29
39.77686 27
39.81578 24
39.8547 24
39.89362 24
39.93254 24
39.97146 27
40.01037 31
40.04929 34
40.08821 41
40.12713 59
40.16605 106
40.20497 210
40.24389 329
40.28281 253
40.32173 172
40.36065 175
40.39957 91
40.43849 40
40.47741 29
40.51633 24
40.55525 22
40.59417 20
40.63309 19
40.67201 18
40.71093 17
40.74985 17
40.78877 16
40.82769 17
40.86661 17
40.90553 17
40.94445 17
40.98337 17
41.02228 16
41.0612 16
41.10012 17
41.13904 16
41.17796 16
41.21688 16
41.2558 16
41.29472 16
41.33364 16
41.37256 16
41.41148 16
41.4504 16
41.48932 16
41.52824 16
41.56716 16
41.60608 15
41.645 16
41.68392 16
41.72284 17
41.76176 16
41.80068 16
41.8396 17
41.87852 17
41.91744 18
41.95636 17
41.99528 18
42.03419 19
42.07311 22
42.11203 25
42.15095 30
42.18987 36
42.22879 46
42.26771 64
42.30663 109
42.34555 217
42.38447 400
42.42339 458
42.46231 268
42.50123 243
42.54015 216
42.57907 92
42.61799 46
42.65691 34
42.69583 28
42.73475 24
42.77367 22
42.81259 20
42.85151 19
42.89043 18
42.92935 17
42.96827 17
43.00719 17
43.0461 16
43.08502 16
43.12394 16
43.16286 16
43.20178 16
43.2407 15
43.27962 13
43.31854 14
43.35746 14
43.39638 14
43.4353 13
43.47422 13
43.51314 13
43.55206 13
43.59098 13
43.6299 13
43.66882 13
43.70774 13
43.74666 13
43.78558 14
43.8245 12
43.86342 13
43.90234 13
43.94126 13
43.98018 13
44.0191 14
44.058015 13
44.09693 13
44.13585 13
44.17477 13
44.21369 13
44.25261 13
44.29153 13
44.33045 13
44.36937 13
44.40829 13
44.44721 13
44.48613 13
44.52505 13
44.56397 12
44.60289 13
44.64181 14
44.68073 13
44.71965 14
44.75857 13
44.79749 14
44.83641 14
44.87533 14
44.91425 14
44.95317 13
44.99209 14
45.03101 14
45.069925 14
45.10884 14
45.14776 13
45.18668 14
45.2256 14
45.26452 14
45.30344 14
45.34236 16
45.38128 17
45.4202 18
45.45912 21
45.49804 24
45.53696 28
45.57588 36
45.6148 48
45.65372 81
45.69264 157
45.73156 271
45.77048 283
45.8094 163
45.84832 151
45.88724 151
45.92616 73
45.96508 34
46.004 24
46.04292 21
46.081835 17
46.12075 17
46.15967 15
46.19859 16
46.23751 14
46.27643 14
46.31535 14
46.35427 14
46.39319 13
46.43211 13
46.47103 12
46.50995 12
46.54887 12
46.58779 13
46.62671 13
46.66563 13
46.70455 12
46.74347 12
46.78239 12
46.82131 12
46.86023 12
46.89915 12
46.93807 12
46.97699 13
47.01591 13
47.05483 12
47.093745 12
47.13266 12
47.17158 12
47.2105 12
47.24942 12
47.28834 12
47.32726 12
47.36618 12
47.4051 12
47.44402 12
47.48294 12
47.52186 12
47.56078 12
47.5997 12
47.63862 12
47.67754 12
47.71646 12
47.75538 12
47.7943 12
47.83322 12
47.87214 12
47.91106 11
47.94998 12
47.9889 12
48.02782 12
48.06674 12
48.105655 12
48.14457 12
48.18349 13
48.22241 13
48.26133 13
48.30025 13
48.33917 13
48.37809 14
48.41701 14
48.45593 14
48.49485 14
48.53377 15
48.57269 14
48.61161 14
48.65053 14
48.68945 14
48.72837 14
48.76729 15
48.80621 14
48.84513 14
48.88405 16
48.92297 16
48.96189 16
49.00081 15
49.03973 17
49.07865 17
49.117565 16
49.15648 16
49.1954 16
49.23432 17
49.27324 18
49.31216 17
49.35108 19
49.39 19
49.42892 20
49.46784 20
49.50676 21
49.54568 22
49.5846 23
49.62352 24
49.66244 26
49.70136 28
49.74028 33
49.7792 41
49.81812 51
49.85704 66
49.89596 82
49.93488 116
49.9738 187
50.01272 355
50.05164 681
50.09056 1047
50.129475 856
50.16839 466
50.20731 514
50.24623 526
50.28515 250
50.32407 99
50.36299 62
50.40191 50
50.44083 42
50.47975 38
50.51867 39
50.55759 46
50.59651 46
50.63543 34
50.67435 29
50.71327 32
50.75219 27
50.79111 21
50.83003 19
50.86895 18
50.90787 17
50.94679 17
50.98571 17
51.02463 16
51.06355 17
51.10247 17
51.141385 16
51.1803 16
51.21922 15
51.25814 15
51.29706 14
51.33598 13
51.3749 14
51.41382 14
51.45274 14
51.49166 13
51.53058 14
51.5695 13
51.60842 13
51.64734 13
51.68626 14
51.72518 13
51.7641 14
51.80302 13
51.84194 13
51.88086 13
51.91978 13
51.9587 13
51.99762 12
52.03654 13
52.07546 13
52.11438 13
52.153295 13
52.19221 13
52.23113 13
52.27005 13
52.30897 12
52.34789 13
52.38681 12
52.42573 12
52.46465 12
52.50357 12
52.54249 12
52.58141 13
52.62033 13
52.65925 12
52.69817 12
52.73709 12
52.77601 12
52.81493 12
52.85385 12
52.89277 13
52.93169 13
52.97061 13
53.00953 12
53.04845 13
53.08737 13
53.12629 13
53.16521 13
53.20412 14
53.24304 14
53.28196 14
53.32088 13
53.3598 12
53.39872 12
53.43764 13
53.47656 13
53.51548 12
53.5544 13
53.59332 13
53.63224 13
53.67116 13
53.71008 13
53.749 12
53.78792 13
53.82684 14
53.86576 13
53.90468 14
53.9436 14
53.98252 14
54.02144 14
54.06036 13
54.09928 14
54.1382 14
54.17712 13
54.21603 15
54.25495 15
54.29387 14
54.33279 15
54.37171 15
54.41063 16
54.44955 18
54.48847 19
54.52739 23
54.56631 25
54.60523 30
54.64415 35
54.68307 50
54.72199 79
54.76091 143
54.79983 249
54.83875 314
54.87767 203
54.91659 130
54.95551 156
54.99443 162
55.03335 90
55.07227 46
55.11119 37
55.15011 40
55.18903 56
55.22794 85
55.26686 132
55.30578 135
55.3447 77
55.38362 64
55.42254 78
55.46146 69
55.50038 36
55.5393 22
55.57822 19
55.61714 17
55.65606 16
55.69498 14
55.7339 14
55.77282 14
55.81174 13
55.85066 14
55.88958 14
55.9285 12
55.96742 13
56.00634 13
56.04526 13
56.08418 12
56.1231 13
56.16202 13
56.20094 13
56.23985 13
56.27877 12
56.31769 12
56.35661 13
56.39553 12
56.43445 12
56.47337 12
56.51229 12
56.55121 12
56.59013 12
56.62905 12
56.66797 11
56.70689 12
56.74581 12
56.78473 12
56.82365 12
56.86257 11
56.90149 12
56.94041 12
56.97933 13
57.01825 13
57.05717 14
57.09609 17
57.13501 21
57.17393 28
57.21285 28
57.25176 21
57.29068 18
57.3296 21
57.36852 20
57.40744 16
57.44636 13
57.48528 13
57.5242 12
57.56312 12
57.60204 12
57.64096 12
57.67988 13
57.7188 13
57.75772 13
57.79664 13
57.83556 12
57.87448 13
57.9134 13
57.95232 13
57.99124 13
58.03016 13
58.06908 12
58.108 12
58.14692 13
58.18584 12
58.22476 13
58.26367 13
58.30259 13
58.34151 13
58.38043 13
58.41935 13
58.45827 13
58.49719 14
58.53611 13
58.57503 13
58.61395 13
58.65287 13
58.69179 14
58.73071 13
58.76963 14
58.80855 14
58.84747 14
58.88639 13
58.92531 14
58.96423 16
59.00315 15
59.04207 15
59.08099 16
59.11991 14
59.15883 16
59.19775 15
59.23667 16
59.27558 17
59.3145 17
59.35342 18
59.39234 18
59.43126 20
59.47018 21
59.5091 23
59.54802 27
59.58694 32
59.62586 38
59.66478 47
59.7037 58
59.74262 79
59.78154 122
59.82046 211
59.85938 380
59.8983 608
59.93722 630
59.97614 338
60.01506 245
60.05398 315
60.0929 341
60.13182 195
60.17074 81
60.20966 49
60.24858 38
60.28749 31
60.32641 27
60.36533 23
60.40425 21
60.44317 20
60.48209 19
60.52101 17
60.55993 17
60.59885 16
60.63777 16
60.67669 15
60.71561 15
60.75453 15
60.79345 14
60.83237 15
60.87129 14
60.91021 14
60.94913 14
60.98805 13
61.02697 13
61.06589 13
61.10481 14
61.14373 13
61.18265 13
61.22157 13
61.26049 12
61.2994 13
61.33832 12
61.37724 13
61.41616 12
61.45508 13
61.494 13
61.53292 12
61.57184 12
61.61076 12
61.64968 12
61.6886 12
61.72752 12
61.76644 12
61.80536 11
61.84428 11
61.8832 12
61.92212 12
61.96104 13
61.99996 12
62.03888 11
62.0778 12
62.11672 12
62.15564 12
62.19456 12
62.23348 12
62.2724 11
62.31131 12
62.35023 12
62.38915 12
62.42807 12
62.46699 12
62.50591 13
62.54483 12
62.58375 12
62.62267 12
62.66159 12
62.70051 12
62.73943 12
62.77835 12
62.81727 11
62.85619 12
62.89511 12
62.93403 12
62.97295 12
63.01187 12
63.05079 12
63.08971 12
63.12863 11
63.16755 12
63.20647 11
63.24539 11
63.28431 12
63.323225 13
63.36214 12
63.40106 12
63.43998 13
63.4789 13
63.51782 13
63.55674 13
63.59566 14
63.63458 13
63.6735 16
63.71242 18
63.75134 18
63.79026 21
63.82918 25
63.8681 35
63.90702 55
63.94594 89
63.98486 128
64.02378 113
64.0627 60
64.10162 51
64.14054 63
64.17946 72
64.21838 49
64.2573 26
64.29622 19
64.335135 17
64.37405 16
64.41297 14
64.45189 13
64.49081 13
64.52973 13
64.56865 13
64.60757 12
64.64649 12
64.68541 13
64.72433 12
64.76325 12
64.80217 12
64.84109 12
64.88001 12
64.91893 12
64.95785 12
64.99677 12
65.03569 12
65.07461 13
65.11353 12
65.15245 13
65.19137 12
65.23029 13
65.26921 13
65.30813 13
65.347045 13
65.38596 13
65.42488 13
65.4638 14
65.50272 14
65.54164 16
65.58056 18
65.61948 20
65.6584 24
65.69732 33
65.73624 42
65.77516 37
65.81408 25
65.853 23
65.89192 26
65.93084 28
65.96976 24
66.00868 17
66.0476 16
66.08652 16
66.12544 14
66.16436 15
66.20328 14
66.2422 15
66.28112 14
66.32004 14
66.358955 14
66.39787 14
66.43679 15
66.47571 15
66.51463 14
66.55355 15
66.59247 15
66.63139 16
66.67031 15
66.70923 16
66.74815 16
66.78707 15
66.82599 15
66.86491 17
66.90383 17
66.94275 16
66.98167 17
67.02059 18
67.05951 18
67.09843 19
67.13735 19
67.17627 20
67.21519 20
67.25411 22
67.29303 24
67.33195 27
67.370865 28
67.40978 34
67.4487 39
67.48762 46
67.52654 60
67.56546 86
67.60438 138
67.6433 227
67.68222 350
67.72114 361
67.76006 215
67.79898 146
67.8379 171
67.87682 223
67.91574 230
67.95466 173
67.99358 176
68.0325 258
68.07142 410
68.11034 500
68.14926 368
68.18818 270
68.2271 345
68.26602 467
68.30494 451
68.34386 256
68.382775 152
68.42169 151
68.46061 167
68.49953 133
68.53845 69
68.57737 44
68.61629 34
68.65521 28
68.69413 28
68.73305 24
68.77197 22
68.81089 21
68.84981 20
68.88873 20
68.92765 19
68.96657 18
69.00549 18
69.04441 17
69.08333 17
69.12225 17
69.16117 16
69.20009 15
69.23901 16
69.27793 16
69.31685 15
69.35577 15
69.394685 15
69.4336 14
69.47252 14
69.51144 13
69.55036 13
69.58928 14
69.6282 14
69.66712 14
69.70604 13
69.74496 14
69.78388 14
69.8228 13
69.85199 13
