2 2334
2.02 2222
2.04 2031
2.06 1972
2.08 1896
2.1 1701
2.12 1683
2.14 1647
2.16 1595
2.18 1567
2.2 1525
2.22 1501
2.24 1466
2.26 1418
2.28 1413
2.3 1344
2.32 1351
2.34 1356
2.36 1295
2.38 1301
2.4 1309
2.42 1274
2.44 1288
2.46 1268
2.48 1190
2.5 1208
2.52 1236
2.54 1202
2.56 1226
2.58 1157
2.6 1194
2.62 1128
2.64 1128
2.66 1179
2.68 1161
2.7 1088
2.72 1112
2.74 1055
2.76 1126
2.78 1046
2.8 1149
2.82 1083
2.84 1017
2.86 973
2.88 1010
2.9 1012
2.92 1007
2.94 1008
2.96 977
2.98 1021
3 956
3.02 1009
3.04 958
3.06 992
3.08 923
3.1 972
3.12 911
3.14 919
3.16 973
3.18 896
3.2 872
3.22 921
3.24 877
3.26 880
3.28 864
3.3 869
3.32 879
3.34 886
3.36 804
3.38 870
3.4 831
3.42 800
3.44 841
3.46 796
3.48 878
3.5 807
3.52 774
3.54 754
3.56 786
3.58 815
3.6 814
3.62 784
3.64 717
3.66 790
3.68 740
3.7 799
3.72 748
3.74 743
3.76 810
3.78 747
3.8 747
3.82 742
3.84 700
3.86 676
3.88 736
3.9 719
3.92 741
3.94 707
3.96 678
3.98 729
4 762
4.02 733
4.04 678
4.06 686
4.08 706
4.1 698
4.12 699
4.14 719
4.16 668
4.18 666
4.2 688
4.22 608
4.24 684
4.26 635
4.28 691
4.3 633
4.32 655
4.34 702
4.36 633
4.38 678
4.4 667
4.42 639
4.44 664
4.46 590
4.48 630
4.5 660
4.52 649
4.54 641
4.56 642
4.58 668
4.6 641
4.62 646
4.64 587
4.66 621
4.68 604
4.7 619
4.72 630
4.74 619
4.76 603
4.78 567
4.8 631
4.82 616
4.84 588
4.86 627
4.88 615
4.9 624
4.92 613
4.94 603
4.96 581
4.98 602
5 608
5.02 578
5.04 611
5.06 598
5.08 609
5.1 543
5.12 573
5.14 590
5.16 545
5.18 564
5.2 584
5.22 565
5.24 552
5.26 570
5.28 616
5.3 549
5.32 513
5.34 534
5.36 563
5.38 589
5.4 500
5.42 573
5.44 522
5.46 525
5.48 511
5.5 530
5.52 556
5.54 549
5.56 598
5.58 581
5.6 546
5.62 523
5.64 552
5.66 505
5.68 538
5.7 516
5.72 569
5.74 470
5.76 532
5.78 554
5.8 546
5.82 517
5.84 510
5.86 515
5.88 525
5.9 477
5.92 554
5.94 515
5.96 539
5.98 534
6 553
6.02 518
6.04 510
6.06 494
6.08 503
6.1 504
6.12 468
6.14 542
6.16 508
6.18 533
6.2 515
6.22 466
6.24 535
6.26 503
6.28 529
6.3 522
6.32 547
6.34 482
6.36 520
6.38 438
6.4 485
6.42 493
6.44 493
6.46 517
6.48 499
6.5 529
6.52 475
6.54 468
6.56 463
6.58 532
6.6 477
6.62 473
6.64 514
6.66 490
6.68 474
6.7 457
6.72 527
6.74 444
6.76 485
6.78 455
6.8 485
6.82 477
6.84 515
6.86 490
6.88 475
6.9 506
6.92 437
6.94 427
6.96 488
6.98 454
7 474
7.02 480
7.04 448
7.06 485
7.08 476
7.1 505
7.12 507
7.14 467
7.16 442
7.18 483
7.2 492
7.22 479
7.24 463
7.26 457
7.28 489
7.3 457
7.32 498
7.34 487
7.36 468
7.38 473
7.4 460
7.42 489
7.44 447
7.46 447
7.48 463
7.5 434
7.52 463
7.54 442
7.56 482
7.58 475
7.6 451
7.62 461
7.64 464
7.66 478
7.68 474
7.7 427
7.72 429
7.74 484
7.76 457
7.78 469
7.8 458
7.82 438
7.84 486
7.86 442
7.88 444
7.9 504
7.92 462
7.94 468
7.96 450
7.98 479
8 456
8.02 451
8.04 490
8.06 459
8.08 471
8.1 488
8.12 436
8.14 491
8.16 480
8.18 465
8.2 484
8.22 450
8.24 480
8.26 468
8.28 479
8.3 484
8.32 479
8.34 462
8.36 459
8.38 456
8.4 490
8.42 408
8.44 489
8.46 482
8.48 500
8.5 437
8.52 469
8.54 457
8.56 481
8.58 493
8.6 436
8.62 476
8.64 453
8.66 465
8.68 474
8.7 461
8.72 461
8.74 422
8.76 466
8.78 475
8.8 467
8.82 465
8.84 451
8.86 458
8.88 457
8.9 467
8.92 431
8.94 458
8.96 488
8.98 443
9 454
9.02 459
9.04 471
9.06 469
9.08 437
9.1 457
9.12 437
9.14 447
9.16 451
9.18 471
9.2 474
9.22 492
9.24 456
9.26 444
9.28 456
9.3 511
9.32 432
9.34 439
9.36 480
9.38 474
9.4 478
9.42 481
9.44 448
9.46 464
9.48 511
9.5 478
9.52 456
9.54 440
9.56 460
9.58 489
9.6 469
9.62 493
9.64 470
9.66 467
9.68 466
9.7 493
9.72 472
9.74 465
9.76 508
9.78 489
9.8 489
9.82 445
9.84 521
9.86 468
9.88 476
9.9 456
9.92 480
9.94 483
9.96 481
9.98 479
10 470
10.02 489
10.04 528
10.06 468
10.08 458
10.1 502
10.12 512
10.14 506
10.16 508
10.18 508
10.2 483
10.22 503
10.24 454
10.26 475
10.28 480
10.3 457
10.32 480
10.34 467
10.36 512
10.38 475
10.4 478
10.42 467
10.44 511
10.46 491
10.48 487
10.5 476
10.52 492
10.54 506
10.56 477
10.58 512
10.6 554
10.62 507
10.64 487
10.66 494
10.68 523
10.7 492
10.72 509
10.74 513
10.76 455
10.78 482
10.8 515
10.82 500
10.84 487
10.86 514
10.88 506
10.9 491
10.92 488
10.94 509
10.96 474
10.98 524
11 483
11.02 492
11.04 526
11.06 496
11.08 531
11.1 441
11.12 457
11.14 510
11.16 486
11.18 480
11.2 512
11.22 549
11.24 497
11.26 483
11.28 514
11.3 496
11.32 504
11.34 500
11.36 513
11.38 531
11.4 490
11.42 495
11.44 501
11.46 519
11.48 524
11.5 520
11.52 465
11.54 484
11.56 493
11.58 543
11.6 515
11.62 514
11.64 504
11.66 473
11.68 511
11.7 520
11.72 532
11.74 523
11.76 544
11.78 512
11.8 527
11.82 544
11.84 534
11.86 537
11.88 521
11.9 546
11.92 554
11.94 474
11.96 553
11.98 549
12 517
12.02 518
12.04 533
12.06 513
12.08 515
12.1 524
12.12 538
12.14 551
12.16 558
12.18 541
12.2 528
12.22 547
12.24 505
12.26 562
12.28 539
12.3 535
12.32 534
12.34 520
12.36 531
12.38 553
12.4 533
12.42 570
12.44 518
12.46 517
12.48 514
12.5 515
12.52 550
12.54 534
12.56 519
12.58 543
12.6 545
12.62 550
12.64 534
12.66 550
12.68 582
12.7 505
12.72 499
12.74 571
12.76 509
12.78 570
12.8 537
12.82 560
12.84 569
12.86 569
12.88 538
12.9 577
12.92 578
12.94 548
12.96 521
12.98 550
13 563
13.02 515
13.04 529
13.06 558
13.08 605
13.1 578
13.12 553
13.14 603
13.16 537
13.18 549
13.2 582
13.22 600
13.24 530
13.26 535
13.28 576
13.3 545
13.32 541
13.34 551
13.36 545
13.38 572
13.4 551
13.42 570
13.44 554
13.46 546
13.48 528
13.5 575
13.52 578
13.54 579
13.56 585
13.58 517
13.6 592
13.62 517
13.64 561
13.66 611
13.68 617
13.7 576
13.72 558
13.74 618
13.76 530
13.78 529
13.8 559
13.82 532
13.84 565
13.86 593
13.88 549
13.9 578
13.92 592
13.94 569
13.96 609
13.98 579
14 612
14.02 605
14.04 573
14.06 564
14.08 642
14.1 569
14.12 548
14.14 546
14.16 637
14.18 635
14.2 601
14.22 620
14.24 603
14.26 645
14.28 568
14.3 630
14.32 614
14.34 608
14.36 576
14.38 575
14.4 590
14.42 601
14.44 632
14.46 630
14.48 612
14.5 610
14.52 598
14.54 639
14.56 610
14.58 602
14.6 605
14.62 606
14.64 595
14.66 614
14.68 610
14.7 581
14.72 668
14.74 626
14.76 678
14.78 607
14.8 589
14.82 580
14.84 653
14.86 598
14.88 669
14.9 633
14.92 609
14.94 650
14.96 560
14.98 627
15 660
15.02 628
15.04 627
15.06 604
15.08 645
15.1 675
15.12 649
15.14 679
15.16 669
15.18 629
15.2 603
15.22 623
15.24 701
15.26 646
15.28 641
15.3 606
15.32 678
15.34 651
15.36 625
15.38 666
15.4 632
15.42 640
15.44 690
15.46 669
15.48 668
15.5 645
15.52 704
15.54 664
15.56 678
15.58 692
15.6 704
15.62 666
15.64 672
15.66 646
15.68 729
15.7 657
15.72 676
15.74 666
15.76 712
15.78 690
15.8 705
15.82 699
15.84 687
15.86 689
15.88 700
15.9 681
15.92 673
15.94 700
15.96 682
15.98 685
16 714
16.02 698
16.04 731
16.06 728
16.08 705
16.1 711
16.12 654
16.14 698
16.16 705
16.18 712
16.2 705
16.22 735
16.24 716
16.26 733
16.28 713
16.3 712
16.32 695
16.34 692
16.36 671
16.38 729
16.4 713
16.42 733
16.44 771
16.46 691
16.48 712
16.5 721
16.52 718
16.54 729
16.56 737
16.58 719
16.6 768
16.62 752
16.64 765
16.66 719
16.68 706
16.7 760
16.72 721
16.74 729
16.76 732
16.78 749
16.8 733
16.82 695
16.84 680
16.86 720
16.88 785
16.9 730
16.92 745
16.94 770
16.96 744
16.98 745
17 733
17.02 694
17.04 781
17.06 770
17.08 743
17.1 750
17.12 721
17.14 768
17.16 774
17.18 775
17.2 792
17.22 733
17.24 765
17.26 786
17.28 806
17.3 728
17.32 790
17.34 779
17.36 742
17.38 797
17.4 754
17.42 774
17.44 741
17.46 757
17.48 829
17.5 815
17.52 853
17.54 775
17.56 794
17.58 797
17.6 820
17.62 806
17.64 794
17.66 826
17.68 791
17.7 820
17.72 802
17.74 814
17.76 764
17.78 793
17.8 806
17.82 834
17.84 774
17.86 801
17.88 797
17.9 783
17.92 800
17.94 788
17.96 748
17.98 776
18 819
18.02 828
18.04 742
18.06 823
18.08 880
18.1 820
18.12 806
18.14 776
18.16 775
18.18 869
18.2 829
18.22 778
18.24 841
18.26 855
18.28 851
18.3 817
18.32 839
18.34 861
18.36 855
18.38 863
18.4 823
18.42 782
18.44 842
18.46 883
18.48 840
18.5 882
18.52 790
18.54 890
18.56 829
18.58 857
18.6 850
18.62 850
18.64 826
18.66 822
18.68 846
18.7 854
18.72 822
18.74 833
18.76 858
18.78 874
18.8 831
18.82 907
18.84 835
18.86 862
18.88 865
18.9 883
18.92 858
18.94 855
18.96 845
18.98 865
19 900
19.02 874
19.04 867
19.06 838
19.08 891
19.1 860
19.12 847
19.14 900
19.16 890
19.18 843
19.2 896
19.22 905
19.24 846
19.26 915
19.28 866
19.3 929
19.32 903
19.34 893
19.36 847
19.38 883
19.4 868
19.42 887
19.44 877
19.46 880
19.48 886
19.5 864
19.52 915
19.54 914
19.56 959
19.58 905
19.6 880
19.62 923
19.64 894
19.66 914
19.68 941
19.7 940
19.72 924
19.74 933
19.76 891
19.78 904
19.8 947
19.82 904
19.84 919
19.86 923
19.88 906
19.9 887
19.92 923
19.94 978
19.96 894
19.98 956
20 887
20.02 925
20.04 910
20.06 944
20.08 917
20.1 886
20.12 934
20.14 902
20.16 897
20.18 956
20.2 923
20.22 901
20.24 940
20.26 935
20.28 975
20.3 942
20.32 904
20.34 923
20.36 949
20.38 966
20.4 995
20.42 945
20.44 950
20.46 958
20.48 941
20.5 991
20.52 897
20.54 949
20.56 948
20.58 1001
20.6 958
20.62 977
20.64 945
20.66 1025
20.68 902
20.7 1015
20.72 973
20.74 932
20.76 939
20.78 965
20.8 995
20.82 953
20.84 982
20.86 971
20.88 961
20.9 919
20.92 978
20.94 927
20.96 922
20.98 971
21 957
21.02 1037
21.04 971
21.06 1001
21.08 1007
21.1 920
21.12 998
21.14 956
21.16 987
21.18 995
21.2 966
21.22 969
21.24 981
21.26 929
21.28 982
21.3 1012
21.32 981
21.34 963
21.36 1008
21.38 1005
21.4 958
21.42 979
21.44 993
21.46 1020
21.48 968
21.5 989
21.52 1025
21.54 1014
21.56 1019
21.58 1032
21.6 1006
21.62 1039
21.64 953
21.66 1041
21.68 1000
21.7 1090
21.72 1025
21.74 1022
21.76 973
21.78 1021
21.8 996
21.82 1015
21.84 1049
21.86 991
21.88 1000
21.9 1024
21.92 1010
21.94 1003
21.96 1037
21.98 1107
22 1019
22.02 1047
22.04 1050
22.06 1044
22.08 1064
22.1 1058
22.12 1054
22.14 1016
22.16 1019
22.18 1036
22.2 1048
22.22 1062
22.24 1039
22.26 1003
22.28 988
22.3 1047
22.32 1057
22.34 1070
22.36 1095
22.38 1044
22.4 1063
22.42 1083
22.44 1079
22.46 1089
22.48 1043
22.5 1100
22.52 943
22.54 1040
22.56 1066
22.58 1039
22.6 1025
22.62 1032
22.64 1005
22.66 1031
22.68 1031
22.7 1008
22.72 1018
22.74 1011
22.76 1008
22.78 1041
22.8 1085
22.82 1000
22.84 1063
22.86 1025
22.88 1057
22.9 1023
22.92 1054
22.94 1036
22.96 1021
22.98 1090
23 1011
23.02 1063
23.04 997
23.06 1087
23.08 1044
23.1 1112
23.12 1100
23.14 1032
23.16 1002
23.18 1055
23.2 1085
23.22 998
23.24 1058
23.26 1036
23.28 1139
23.3 964
23.32 1055
23.34 1015
23.36 986
23.38 1051
23.4 1086
23.42 1061
23.44 1024
23.46 1075
23.48 1030
23.5 1077
23.52 1036
23.54 1063
23.56 1081
23.58 970
23.6 1041
23.62 1046
23.64 1007
23.66 1033
23.68 1077
23.7 1021
23.72 1035
23.74 1023
23.76 1031
23.78 1034
23.8 1036
23.82 1031
23.84 987
23.86 1002
23.88 1052
23.9 1045
23.92 1059
23.94 1112
23.96 1087
23.98 1068
24 1113
24.02 1135
24.04 1103
24.06 1146
24.08 1128
24.1 1219
24.12 1241
24.14 1297
24.16 1353
24.18 1310
24.2 1462
24.22 1342
24.24 1290
24.26 1283
24.28 1244
24.3 1194
24.32 1160
24.34 1158
24.36 1119
24.38 1187
24.4 1136
24.42 1134
24.44 1096
24.46 1103
24.48 1042
24.5 1123
24.52 1035
24.54 1084
24.56 1071
24.58 1048
24.6 1023
24.62 1088
24.64 1051
24.66 1097
24.68 1072
24.7 1110
24.72 1113
24.74 1058
24.76 1051
24.78 1065
24.8 1083
24.82 1053
24.84 1046
24.86 1087
24.88 1085
24.9 1008
24.92 1040
24.94 1079
24.96 1015
24.98 991
25 1017
25.02 1020
25.04 1025
25.06 1095
25.08 1013
25.1 989
25.12 991
25.14 994
25.16 986
25.18 1013
25.2 1064
25.22 1012
25.24 988
25.26 989
25.28 1012
25.3 1034
25.32 997
25.34 1031
25.36 1006
25.38 995
25.4 1051
25.42 1044
25.44 1033
25.46 1039
25.48 1089
25.5 1140
25.52 1077
25.54 1089
25.56 1054
25.58 1067
25.6 1077
25.62 992
25.64 982
25.66 979
25.68 997
25.7 923
25.72 916
25.74 968
25.76 926
25.78 950
25.8 931
25.82 919
25.84 902
25.86 927
25.88 959
25.9 953
25.92 954
25.94 941
25.96 893
25.98 923
26 914
26.02 891
26.04 872
26.06 970
26.08 893
26.1 973
26.12 854
26.14 933
26.16 884
26.18 914
26.2 904
26.22 980
26.24 931
26.26 949
26.28 933
26.3 901
26.32 888
26.34 854
26.36 853
26.38 932
26.4 916
26.42 873
26.44 913
26.46 873
26.48 931
26.5 923
26.52 898
26.54 886
26.56 860
26.58 935
26.6 892
26.62 858
26.64 876
26.66 883
26.68 906
26.7 889
26.72 867
26.74 837
26.76 908
26.78 892
26.8 843
26.82 855
26.84 819
26.86 822
26.88 929
26.9 812
26.92 845
26.94 861
26.96 855
26.98 854
27 789
27.02 855
27.04 871
27.06 857
27.08 861
27.1 878
27.12 847
27.14 839
27.16 842
27.18 871
27.2 872
27.22 886
27.24 861
27.26 853
27.28 843
27.3 870
27.32 899
27.34 902
27.36 973
27.38 899
27.4 878
27.42 873
27.44 890
27.46 892
27.48 828
27.5 859
27.52 808
27.54 807
27.56 798
27.58 787
27.6 840
27.62 785
27.64 785
27.66 788
27.68 785
27.7 824
27.72 868
27.74 809
27.76 797
27.78 825
27.8 792
27.82 843
27.84 769
27.86 820
27.88 804
27.9 786
27.92 811
27.94 804
27.96 794
27.98 734
28 740
28.02 772
28.04 751
28.06 784
28.08 824
28.1 805
28.12 729
28.14 754
28.16 761
28.18 798
28.2 783
28.22 794
28.24 746
28.26 790
28.28 791
28.3 761
28.32 735
28.34 764
28.36 723
28.38 748
28.4 706
28.42 803
28.44 736
28.46 731
28.48 702
28.5 749
28.52 716
28.54 719
28.56 698
28.58 717
28.6 723
28.62 705
28.64 687
28.66 721
28.68 722
28.7 691
28.72 708
28.74 743
28.76 756
28.78 644
28.8 718
28.82 683
28.84 672
28.86 713
28.88 706
28.9 725
28.92 698
28.94 671
28.96 671
28.98 672
29 705
29.02 622
29.04 716
29.06 671
29.08 630
29.1 677
29.12 664
29.14 732
29.16 646
29.18 671
29.2 678
29.22 619
29.24 686
29.26 671
29.28 629
29.3 674
29.32 720
29.34 701
29.36 699
29.38 697
29.4 664
29.42 662
29.44 665
29.46 641
29.48 697
29.5 701
29.52 684
29.54 707
29.56 693
29.58 696
29.6 704
29.62 696
29.64 685
29.66 713
29.68 729
29.7 733
29.72 762
29.74 714
29.76 738
29.78 696
29.8 792
29.82 735
29.84 720
29.86 691
29.88 638
29.9 656
29.92 652
29.94 661
29.96 671
29.98 635
30 634
30.02 671
30.04 621
30.06 658
30.08 660
30.1 590
30.12 656
30.14 609
30.16 615
30.18 624
30.2 578
30.22 659
30.24 611
30.26 617
30.28 644
30.3 647
30.32 614
30.34 565
30.36 610
30.38 607
30.4 632
30.42 683
30.44 693
30.46 622
30.48 643
30.5 574
30.52 611
30.54 567
30.56 632
30.58 629
30.6 628
30.62 635
30.64 730
30.66 748
30.68 753
30.7 762
30.72 761
30.74 892
30.76 926
30.78 978
30.8 994
30.82 1168
30.84 1168
30.86 1417
30.88 1529
30.9 1650
30.92 1786
30.94 1949
30.96 2094
30.98 1978
31 2003
31.02 1726
31.04 1511
31.06 1290
31.08 1100
31.1 967
31.12 872
31.14 777
31.16 735
31.18 750
31.2 716
31.22 703
31.24 704
31.26 680
31.28 656
31.3 726
31.32 687
31.34 624
31.36 672
31.38 629
31.4 671
31.42 630
31.44 665
31.46 628
31.48 650
31.5 642
31.52 608
31.54 614
31.56 591
31.58 623
31.6 596
31.62 581
31.64 625
31.66 590
31.68 612
31.7 579
31.72 613
31.74 585
31.76 585
31.78 602
31.8 566
31.82 584
31.84 572
31.86 595
31.88 625
31.9 638
31.92 642
31.94 640
31.96 652
31.98 670
32 675
32.02 675
32.04 632
32.06 654
32.08 640
32.1 603
32.12 599
32.14 625
32.16 643
32.18 655
32.2 596
32.22 643
32.24 626
32.26 675
32.28 735
32.3 682
32.32 673
32.34 731
32.36 672
32.38 694
32.4 681
32.42 697
32.44 687
32.46 689
32.48 651
32.5 683
32.52 720
32.54 621
32.56 668
32.58 641
32.6 609
32.62 619
32.64 554
32.66 594
32.68 570
32.7 573
32.72 597
32.74 550
32.76 569
32.78 562
32.8 533
32.82 576
32.84 588
32.86 526
32.88 530
32.9 485
32.92 552
32.94 523
32.96 532
32.98 559
33 526
33.02 520
33.04 531
33.06 491
33.08 503
33.1 513
33.12 497
33.14 505
33.16 521
33.18 484
33.2 483
33.22 486
33.24 498
33.26 500
33.28 510
33.3 489
33.32 473
33.34 520
33.36 456
33.38 495
33.4 462
33.42 482
33.44 470
33.46 498
33.48 527
33.5 492
33.52 477
33.54 442
33.56 472
33.58 482
33.6 470
33.62 469
33.64 492
33.66 486
33.68 460
33.7 461
33.72 438
33.74 492
33.76 504
33.78 476
33.8 454
33.82 468
33.84 421
33.86 465
33.88 463
33.9 462
33.92 501
33.94 466
33.96 503
33.98 488
34 495
34.02 445
34.04 463
34.06 479
34.08 442
34.1 525
34.12 455
34.14 506
34.16 499
34.18 504
34.2 480
34.22 453
34.24 503
34.26 443
34.28 480
34.3 441
34.32 466
34.34 466
34.36 444
34.38 475
34.4 493
34.42 447
34.44 515
34.46 402
34.48 444
34.5 475
34.52 441
34.54 462
34.56 495
34.58 516
34.6 514
34.62 477
34.64 464
34.66 522
34.68 466
34.7 514
34.72 541
34.74 505
34.76 509
34.78 494
34.8 538
34.82 505
34.84 539
34.86 448
34.88 492
34.9 510
34.92 481
34.94 470
34.96 525
34.98 455
35 475
35.02 484
35.04 462
35.06 490
35.08 459
35.1 462
35.12 507
35.14 486
35.16 473
35.18 490
35.2 470
35.22 476
35.24 450
35.26 478
35.28 481
35.3 493
35.32 443
35.34 467
35.36 480
35.38 454
35.4 499
35.42 463
35.44 473
35.46 485
35.48 466
35.5 449
35.52 466
35.54 468
35.56 474
35.58 453
35.6 474
35.62 445
35.64 448
35.66 450
35.68 414
35.7 428
35.72 426
35.74 425
35.76 468
35.78 436
35.8 456
35.82 443
35.84 427
35.86 444
35.88 497
35.9 454
35.92 476
35.94 484
35.96 455
35.98 442
36 427
36.02 429
36.04 436
36.06 451
36.08 422
36.1 408
36.12 428
36.14 452
36.16 433
36.18 458
36.2 453
36.22 382
36.24 460
36.26 433
36.28 400
36.3 425
36.32 429
36.34 449
36.36 446
36.38 429
36.4 421
36.42 396
36.44 441
36.46 409
36.48 409
36.5 407
36.52 447
36.54 420
36.56 424
36.58 416
36.6 400
36.62 403
36.64 430
36.66 436
36.68 437
36.7 408
36.72 420
36.74 437
36.76 410
36.78 394
36.8 390
36.82 415
36.84 384
36.86 428
36.88 414
36.9 428
36.92 406
36.94 442
36.96 426
36.98 404
37 440
37.02 358
37.04 398
37.06 429
37.08 422
37.1 442
37.12 440
37.14 391
37.16 389
37.18 410
37.2 385
37.22 379
37.24 429
37.26 389
37.28 418
37.3 425
37.32 378
37.34 409
37.36 438
37.38 391
37.4 414
37.42 427
37.44 380
37.46 418
37.48 392
37.5 404
37.52 397
37.54 393
37.56 399
37.58 402
37.6 441
37.62 469
37.64 385
37.66 418
37.68 407
37.7 435
37.72 387
37.74 404
37.76 376
37.78 388
37.8 432
37.82 417
37.84 378
37.86 414
37.88 426
37.9 406
37.92 393
37.94 406
37.96 407
37.98 402
38 379
38.02 383
38.04 386
38.06 371
38.08 416
38.1 386
38.12 378
38.14 366
38.16 426
38.18 394
38.2 372
38.22 406
38.24 390
38.26 392
38.28 384
38.3 355
38.32 404
38.34 375
38.36 408
38.38 447
38.4 399
38.42 397
38.44 439
38.46 394
38.48 384
38.5 363
38.52 374
38.54 389
38.56 369
38.58 422
38.6 381
38.62 397
38.64 419
38.66 429
38.68 371
38.7 372
38.72 371
38.74 401
38.76 373
38.78 393
38.8 427
38.82 401
38.84 395
38.86 384
38.88 366
38.9 384
38.92 373
38.94 412
38.96 384
38.98 401
39 371
39.02 404
39.04 390
39.06 388
39.08 393
39.1 356
39.12 355
39.14 366
39.16 411
39.18 387
39.2 341
39.22 409
39.24 370
39.26 407
39.28 374
39.3 392
39.32 392
39.34 413
39.36 381
39.38 381
39.4 403
39.42 379
39.44 390
39.46 403
39.48 401
39.5 384
39.52 388
39.54 407
39.56 427
39.58 412
39.6 395
39.62 402
39.64 353
39.66 397
39.68 404
39.7 387
39.72 432
39.74 383
39.76 390
39.78 382
39.8 374
39.82 398
39.84 397
39.86 366
39.88 406
39.9 367
39.92 397
39.94 383
39.96 405
39.98 410
40 395
40.02 434
40.04 385
40.06 380
40.08 444
40.1 375
40.12 436
40.14 419
40.16 427
40.18 401
40.2 407
40.22 429
40.24 421
40.26 407
40.28 397
40.3 407
40.32 425
40.34 416
40.36 432
40.38 380
40.4 419
40.42 416
40.44 375
40.46 404
40.48 431
40.5 443
40.52 430
40.54 465
40.56 435
40.58 428
40.6 419
40.62 424
40.64 404
40.66 415
40.68 440
40.7 427
40.72 463
40.74 455
40.76 464
40.78 447
40.8 462
40.82 438
40.84 448
40.86 448
40.88 418
40.9 452
40.92 445
40.94 477
40.96 489
40.98 460
41 448
41.02 450
41.04 434
41.06 454
41.08 503
41.1 427
41.12 435
41.14 443
41.16 393
41.18 407
41.2 413
41.22 400
41.24 424
41.26 393
41.28 404
41.3 411
41.32 379
41.34 408
41.36 451
41.38 393
41.4 416
41.42 410
41.44 380
41.46 394
41.48 394
41.5 409
41.52 382
41.54 393
41.56 405
41.58 406
41.6 406
41.62 421
41.64 428
41.66 403
41.68 380
41.7 383
41.72 370
41.74 368
41.76 372
41.78 419
41.8 415
41.82 397
41.84 368
41.86 406
41.88 408
41.9 412
41.92 425
41.94 397
41.96 389
41.98 369
42 337
42.02 402
42.04 408
42.06 438
42.08 402
42.1 348
42.12 410
42.14 367
42.16 406
42.18 390
42.2 401
42.22 372
42.24 403
42.26 391
42.28 339
42.3 381
42.32 388
42.34 393
42.36 385
42.38 380
42.4 379
42.42 380
42.44 391
42.46 446
42.48 412
42.5 426
42.52 424
42.54 425
42.56 436
42.58 468
42.6 493
42.62 455
42.64 476
42.66 444
42.68 427
42.7 445
42.72 396
42.74 408
42.76 409
42.78 396
42.8 406
42.82 412
42.84 371
42.86 415
42.88 395
42.9 393
42.92 383
42.94 385
42.96 392
42.98 384
43 377
43.02 391
43.04 376
43.06 355
43.08 381
43.1 372
43.12 419
43.14 384
43.16 378
43.18 370
43.2 327
43.22 368
43.24 379
43.26 396
43.28 367
43.3 361
43.32 374
43.34 358
43.36 387
43.38 400
43.4 375
43.42 376
43.44 345
43.46 395
43.48 368
43.5 364
43.52 375
43.54 363
43.56 368
43.58 373
43.6 375
43.62 412
43.64 359
43.66 392
43.68 405
43.7 373
43.72 362
43.74 401
43.76 393
43.78 365
43.8 385
43.82 368
43.84 387
43.86 359
43.88 348
43.9 379
43.92 354
43.94 411
43.96 371
43.98 415
44 378
44.02 385
44.04 393
44.06 399
44.08 379
44.1 390
44.12 351
44.14 409
44.16 383
44.18 394
44.2 361
44.22 374
44.24 369
44.26 382
44.28 394
44.3 387
44.32 368
44.34 384
44.36 369
44.38 351
44.4 372
44.42 355
44.44 354
44.46 380
44.48 368
44.5 354
44.52 343
44.54 352
44.56 343
44.58 373
44.6 364
44.62 362
44.64 360
44.66 373
44.68 354
44.7 353
44.72 402
44.74 352
44.76 339
44.78 345
44.8 362
44.82 326
44.84 376
44.86 337
44.88 314
44.9 338
44.92 371
44.94 389
44.96 357
44.98 366
45 388
45.02 373
45.04 373
45.06 325
45.08 363
45.1 376
45.12 345
45.14 369
45.16 396
45.18 354
45.2 342
45.22 361
45.24 356
45.26 347
45.28 356
45.3 363
45.32 361
45.34 374
45.36 369
45.38 342
45.4 387
45.42 377
45.44 374
45.46 346
45.48 370
45.5 349
45.52 387
45.54 375
45.56 346
45.58 366
45.6 397
45.62 345
45.64 367
45.66 358
45.68 345
45.7 339
45.72 349
45.74 362
45.76 348
45.78 343
45.8 417
45.82 340
45.84 377
45.86 357
45.88 359
45.9 363
45.92 384
45.94 385
45.96 402
45.98 393
46 398
46.02 447
46.04 425
46.06 435
46.08 432
46.1 423
46.12 419
46.14 424
46.16 437
46.18 375
46.2 401
46.22 383
46.24 389
46.26 333
46.28 359
46.3 392
46.32 395
46.34 366
46.36 339
46.38 333
46.4 335
46.42 351
46.44 370
46.46 329
46.48 389
46.5 378
46.52 361
46.54 338
46.56 357
46.58 320
46.6 378
46.62 348
46.64 338
46.66 345
46.68 342
46.7 359
46.72 347
46.74 356
46.76 356
46.78 321
46.8 366
46.82 354
46.84 386
46.86 344
46.88 343
46.9 350
46.92 382
46.94 386
46.96 373
46.98 361
47 404
47.02 362
47.04 373
47.06 400
47.08 374
47.1 362
47.12 359
47.14 415
47.16 361
47.18 361
47.2 338
47.22 349
47.24 326
47.26 362
47.28 354
47.3 335
47.32 370
47.34 357
47.36 341
47.38 363
47.4 337
47.42 333
47.44 331
47.46 375
47.48 395
47.5 320
47.52 336
47.54 329
47.56 354
47.58 327
47.6 335
47.62 366
47.64 355
47.66 379
47.68 337
47.7 305
47.72 355
47.74 334
47.76 375
47.78 347
47.8 337
47.82 364
47.84 328
47.86 340
47.88 337
47.9 331
47.92 368
47.94 341
47.96 320
47.98 326
48 322
48.02 385
48.04 312
48.06 322
48.08 319
48.1 329
48.12 317
48.14 362
48.16 343
48.18 330
48.2 378
48.22 362
48.24 346
48.26 315
48.28 317
48.3 321
48.32 378
48.34 334
48.36 344
48.38 350
48.4 338
48.42 323
48.44 368
48.46 336
48.48 325
48.5 384
48.52 309
48.54 364
48.56 325
48.58 364
48.6 370
48.62 335
48.64 371
48.66 328
48.68 351
48.7 370
48.72 315
48.74 347
48.76 361
48.78 365
48.8 366
48.82 371
48.84 410
48.86 374
48.88 357
48.9 381
48.92 345
48.94 360
48.96 356
48.98 376
49 355
49.02 416
49.04 444
49.06 438
49.08 437
49.1 452
49.12 476
49.14 563
49.16 550
49.18 593
49.2 545
49.22 604
49.24 560
49.26 579
49.28 536
49.3 606
49.32 525
49.34 537
49.36 536
49.38 510
49.4 459
49.42 469
49.44 495
49.46 401
49.48 463
49.5 493
49.52 459
49.54 438
49.56 443
49.58 425
49.6 463
49.62 443
49.64 443
49.66 466
49.68 416
49.7 393
49.72 416
49.74 390
49.76 364
49.78 371
49.8 358
49.82 388
49.84 372
49.86 388
49.88 387
49.9 375
49.92 360
49.94 326
49.96 347
49.98 314
50 348
50.02 376
50.04 323
50.06 337
50.08 363
50.1 307
50.12 338
50.14 359
50.16 335
50.18 340
50.2 337
50.22 317
50.24 365
50.26 325
50.28 354
50.3 334
50.32 360
50.34 331
50.36 380
50.38 412
50.4 329
50.42 369
50.44 364
50.46 386
50.48 385
50.5 383
50.52 353
50.54 399
50.56 396
50.58 354
50.6 350
50.62 368
50.64 368
50.66 379
50.68 399
50.7 385
50.72 370
50.74 351
50.76 358
50.78 356
50.8 368
50.82 377
50.84 383
50.86 340
50.88 371
50.9 327
50.92 328
50.94 322
50.96 309
50.98 344
51 314
51.02 322
51.04 355
51.06 317
51.08 347
51.1 291
51.12 312
51.14 334
51.16 302
51.18 315
51.2 329
51.22 288
51.24 296
51.26 330
51.28 323
51.3 323
51.32 310
51.34 328
51.36 361
51.38 282
51.4 303
51.42 292
51.44 322
51.46 301
51.48 323
51.5 305
51.52 294
51.54 292
51.56 311
51.58 282
51.6 313
51.62 304
51.64 312
51.66 305
51.68 321
51.7 278
51.72 313
51.74 312
51.76 257
51.78 309
51.8 326
51.82 313
51.84 291
51.86 315
51.88 301
51.9 291
51.92 300
51.94 286
51.96 284
51.98 284
52 296
52.02 271
52.04 313
52.06 306
52.08 279
52.1 296
52.12 276
52.14 326
52.16 289
52.18 294
52.2 295
52.22 306
52.24 280
52.26 295
52.28 285
52.3 279
52.32 313
52.34 284
52.36 344
52.38 316
52.4 317
52.42 298
52.44 293
52.46 299
52.48 294
52.5 270
52.52 310
52.54 340
52.56 290
52.58 295
52.6 315
52.62 279
52.64 306
52.66 307
52.68 300
52.7 291
52.72 310
52.74 316
52.76 276
52.78 298
52.8 341
52.82 283
52.84 284
52.86 337
52.88 302
52.9 306
52.92 302
52.94 300
52.96 296
52.98 313
53 300
53.02 276
53.04 305
53.06 248
53.08 288
53.1 295
53.12 280
53.14 297
53.16 282
53.18 266
53.2 290
53.22 285
53.24 327
53.26 295
53.28 276
53.3 250
53.32 309
53.34 297
53.36 269
53.38 309
53.4 302
53.42 300
53.44 303
53.46 285
53.48 310
53.5 291
53.52 270
53.54 308
53.56 327
53.58 337
53.6 304
53.62 328
53.64 289
53.66 268
53.68 328
53.7 284
53.72 293
53.74 304
53.76 312
53.78 309
53.8 258
53.82 292
53.84 276
53.86 282
53.88 280
53.9 280
53.92 277
53.94 261
53.96 288
53.98 236
54 255
54.02 257
54.04 282
54.06 275
54.08 258
54.1 235
54.12 265
54.14 306
54.16 263
54.18 264
54.2 240
54.22 251
54.24 256
54.26 261
54.28 253
54.3 284
54.32 269
54.34 256
54.36 246
54.38 276
54.4 246
54.42 271
54.44 272
54.46 252
54.48 261
54.5 213
54.52 278
54.54 243
54.56 246
54.58 259
54.6 253
54.62 238
54.64 236
54.66 267
54.68 276
54.7 257
54.72 256
54.74 252
54.76 270
54.78 272
54.8 237
54.82 258
54.84 249
54.86 244
54.88 292
54.9 238
54.92 279
54.94 274
54.96 230
54.98 249
55 257
55.02 274
55.04 254
55.06 261
55.08 236
55.1 273
55.12 250
55.14 289
55.16 246
55.18 247
55.2 264
55.22 248
55.24 270
55.26 251
55.28 259
55.3 257
55.32 228
55.34 262
55.36 279
55.38 236
55.4 250
55.42 246
55.44 275
55.46 244
55.48 252
55.5 249
55.52 249
55.54 236
55.56 242
55.58 232
55.6 261
55.62 283
55.64 256
55.66 263
55.68 234
55.7 274
55.72 254
55.74 246
55.76 249
55.78 258
55.8 264
55.82 262
55.84 243
55.86 212
55.88 240
55.9 237
55.92 275
55.94 232
55.96 256
55.98 227
56 224
56.02 260
56.04 243
56.06 261
56.08 229
56.1 252
56.12 208
56.14 246
56.16 263
56.18 223
56.2 245
56.22 240
56.24 263
56.26 236
56.28 240
56.3 289
56.32 235
56.34 249
56.36 267
56.38 232
56.4 228
56.42 208
56.44 270
56.46 222
56.48 228
56.5 217
56.52 242
56.54 244
56.56 253
56.58 250
56.6 249
56.62 245
56.64 259
56.66 247
56.68 216
56.7 213
56.72 220
56.74 252
56.76 218
56.78 256
56.8 254
56.82 245
56.84 230
56.86 264
56.88 245
56.9 260
56.92 229
56.94 241
56.96 194
56.98 221
57 223
57.02 229
57.04 258
57.06 231
57.08 251
57.1 262
57.12 261
57.14 240
57.16 238
57.18 275
57.2 266
57.22 263
57.24 252
57.26 274
57.28 300
57.3 270
57.32 267
57.34 322
57.36 291
57.38 309
57.4 317
57.42 359
57.44 326
57.46 353
57.48 341
57.5 344
57.52 396
57.54 398
57.56 354
57.58 350
57.6 399
57.62 339
57.64 326
57.66 373
57.68 363
57.7 363
57.72 326
57.74 330
57.76 285
57.78 315
57.8 287
57.82 301
57.84 288
57.86 306
57.88 311
57.9 269
57.92 264
57.94 256
57.96 256
57.98 264
58 263
58.02 268
58.04 249
58.06 249
58.08 246
58.1 246
58.12 255
58.14 246
58.16 239
58.18 247
58.2 233
58.22 231
58.24 251
58.26 219
58.28 250
58.3 224
58.32 250
58.34 229
58.36 228
58.38 261
58.4 258
58.42 237
58.44 244
58.46 222
58.48 242
58.5 236
58.52 268
58.54 226
58.56 302
58.58 251
58.6 261
58.62 263
58.64 239
58.66 261
58.68 264
58.7 249
58.72 264
58.74 275
58.76 313
58.78 310
58.8 299
58.82 346
58.84 349
58.86 332
58.88 355
58.9 324
58.92 288
58.94 307
58.96 309
58.98 281
59 292
59.02 271
59.04 272
59.06 236
59.08 242
59.1 246
59.12 247
59.14 245
59.16 176
59.18 203
59.2 227
59.22 221
59.24 199
59.26 240
59.28 188
59.3 199
59.32 245
59.34 227
59.36 224
59.38 261
59.4 238
59.42 216
59.44 236
59.46 223
59.48 251
59.5 226
59.52 218
59.54 248
59.56 209
59.58 241
59.6 232
59.62 225
59.64 228
59.66 238
59.68 221
59.7 233
59.72 201
59.74 224
59.76 240
59.78 199
59.8 180
59.82 208
59.84 229
59.86 210
59.88 199
59.9 223
59.92 221
59.94 215
59.96 206
59.98 215
60 209
60.02 211
60.04 213
60.06 201
60.08 197
60.1 197
60.12 228
60.14 215
60.16 235
60.18 230
60.2 178
60.22 188
60.24 201
60.26 233
60.28 224
60.3 214
60.32 208
60.34 222
60.36 233
60.38 210
60.4 194
60.42 214
60.44 212
60.46 205
60.48 230
60.5 186
60.52 201
60.54 198
60.56 200
60.58 194
60.6 215
60.62 216
60.64 195
60.66 199
60.68 194
60.7 207
60.72 198
60.74 184
60.76 183
60.78 207
60.8 215
60.82 184
60.84 178
60.86 201
60.88 194
60.9 184
60.92 188
60.94 222
60.96 197
60.98 208
61 193
61.02 189
61.04 185
61.06 190
61.08 180
61.1 165
61.12 196
61.14 206
61.16 223
61.18 169
61.2 184
61.22 179
61.24 199
61.26 206
61.28 198
61.3 181
61.32 197
61.34 177
61.36 198
61.38 210
61.4 206
61.42 206
61.44 193
61.46 198
61.48 205
61.5 166
61.52 196
61.54 219
61.56 213
61.58 205
61.6 221
61.62 218
61.64 217
61.66 208
61.68 196
61.7 235
61.72 199
61.74 228
61.76 221
61.78 179
61.8 185
61.82 224
61.84 201
61.86 210
61.88 209
61.9 199
61.92 195
61.94 182
61.96 206
61.98 204
62 208
62.02 191
62.04 187
62.06 183
62.08 188
62.1 195
62.12 180
62.14 188
62.16 196
62.18 182
62.2 206
62.22 183
62.24 174
62.26 186
62.28 203
62.3 234
62.32 168
62.34 186
62.36 172
62.38 187
62.4 192
62.42 189
62.44 186
62.46 188
62.48 215
62.5 171
62.52 198
62.54 202
62.56 187
62.58 204
62.6 179
62.62 181
62.64 201
62.66 179
62.68 199
62.7 188
62.72 161
62.74 193
62.76 184
62.78 164
62.8 175
62.82 176
62.84 193
62.86 171
62.88 192
62.9 160
62.92 194
62.94 175
62.96 196
62.98 178
63 146
63.02 193
63.04 195
63.06 165
63.08 153
63.1 188
63.12 210
63.14 157
63.16 188
63.18 182
63.2 168
63.22 187
63.24 175
63.26 196
63.28 178
63.3 185
63.32 156
63.34 165
63.36 194
63.38 195
63.4 176
63.42 184
63.44 170
63.46 162
63.48 183
63.5 185
63.52 189
63.54 170
63.56 182
63.58 186
63.6 195
63.62 159
63.64 176
63.66 176
63.68 181
63.7 178
63.72 183
63.74 188
63.76 177
63.78 190
63.8 172
63.82 183
63.84 186
63.86 183
63.88 181
63.9 208
63.92 198
63.94 139
63.96 187
63.98 185
64 182
64.02 202
64.04 149
64.06 174
64.08 163
64.1 175
64.12 194
64.14 166
64.16 185
64.18 181
64.2 185
64.22 169
64.24 174
64.26 175
64.28 191
64.3 158
64.32 171
64.34 175
64.36 194
64.38 171
64.4 170
64.42 200
64.44 170
64.46 176
64.48 174
64.5 183
64.52 189
64.54 200
64.56 206
64.58 188
64.6 225
64.62 240
64.64 207
64.66 201
64.68 204
64.7 181
64.72 205
64.74 211
64.76 167
64.78 201
64.8 208
64.82 191
64.84 198
64.86 186
64.88 177
64.9 183
64.92 167
64.94 188
64.96 184
64.98 176
65 182
65.02 192
65.04 157
65.06 203
65.08 188
65.1 169
65.12 152
65.14 180
65.16 182
65.18 178
65.2 176
65.22 206
65.24 174
65.26 177
65.28 188
65.3 176
65.32 166
65.34 166
65.36 167
65.38 172
65.4 156
65.42 178
65.44 161
65.46 154
65.48 172
65.5 168
65.52 151
65.54 164
65.56 163
65.58 167
65.6 154
65.62 161
65.64 162
65.66 161
65.68 155
65.7 192
65.72 155
65.74 155
65.76 151
65.78 178
65.8 155
65.82 152
65.84 170
65.86 162
65.88 188
65.9 189
65.92 152
65.94 163
65.96 163
65.98 179
66 169
66.02 163
66.04 155
66.06 174
66.08 141
66.1 170
66.12 171
66.14 167
66.16 178
66.18 158
66.2 158
66.22 181
66.24 156
66.26 150
66.28 184
66.3 170
66.32 167
66.34 168
66.36 185
66.38 140
66.4 164
66.42 164
66.44 172
66.46 136
66.48 155
66.5 174
66.52 149
66.54 175
66.56 149
66.58 165
66.6 139
66.62 164
66.64 163
66.66 132
66.68 159
66.7 174
66.72 156
66.74 181
66.76 166
66.78 146
66.8 152
66.82 155
66.84 170
66.86 176
66.88 165
66.9 161
66.92 146
66.94 177
66.96 148
66.98 159
67 142
67.02 141
67.04 171
67.06 159
67.08 154
67.1 138
67.12 167
67.14 166
67.16 171
67.18 160
67.2 167
67.22 157
67.24 159
67.26 152
67.28 157
67.3 162
67.32 176
67.34 182
67.36 163
67.38 175
67.4 163
67.42 153
67.44 140
67.46 173
67.48 165
67.5 145
67.52 175
67.54 188
67.56 166
67.58 173
67.6 180
67.62 163
67.64 171
67.66 176
67.68 194
67.7 178
67.72 183
67.74 189
67.76 186
67.78 197
67.8 190
67.82 162
67.84 204
67.86 180
67.88 199
67.9 176
67.92 187
67.94 184
67.96 217
67.98 177
68 193
68.02 181
68.04 181
68.06 179
68.08 192
68.1 194
68.12 169
68.14 180
68.16 177
68.18 166
68.2 142
68.22 161
68.24 141
68.26 158
68.28 134
68.3 155
68.32 135
68.34 158
68.36 166
68.38 145
68.4 143
68.42 148
68.44 146
68.46 161
68.48 159
68.5 184
68.52 170
68.54 156
68.56 149
68.58 168
68.6 141
68.62 147
68.64 150
68.66 149
68.68 150
68.7 140
68.72 157
68.74 173
68.76 166
68.78 161
68.8 155
68.82 164
68.84 146
68.86 155
68.88 159
68.9 176
68.92 145
68.94 150
68.96 149
68.98 135
69 129
69.02 143
69.04 155
69.06 143
69.08 140
69.1 145
69.12 140
69.14 138
69.16 160
69.18 161
69.2 117
69.22 139
69.24 133
69.26 128
69.28 146
69.3 159
69.32 154
69.34 176
69.36 135
69.38 146
69.4 167
69.42 137
69.44 127
69.46 143
69.48 153
69.5 163
69.52 136
69.54 149
69.56 171
69.58 148
69.6 149
69.62 157
69.64 139
69.66 150
69.68 157
69.7 145
69.72 158
69.74 141
69.76 127
69.78 128
69.8 154
69.82 146
69.84 162
69.86 155
69.88 133
69.9 141
69.92 159
69.94 159
69.96 153
69.98 148
70 158
70.02 155
70.04 148
70.06 123
70.08 117
70.1 134
70.12 149
70.14 155
70.16 137
70.18 142
70.2 128
70.22 131
70.24 167
70.26 144
70.28 171
70.3 150
70.32 151
70.34 165
70.36 154
70.38 138
70.4 147
70.42 145
70.44 143
70.46 151
70.48 130
70.5 151
70.52 154
70.54 144
70.56 133
70.58 146
70.6 147
70.62 163
70.64 186
70.66 191
70.68 157
70.7 219
70.72 167
70.74 172
70.76 212
70.78 191
70.8 237
70.82 213
70.84 220
70.86 225
70.88 221
70.9 189
70.92 201
70.94 184
70.96 208
70.98 177
71 190
71.02 182
71.04 193
71.06 171
71.08 161
71.1 172
71.12 180
71.14 142
71.16 133
71.18 164
71.2 142
71.22 173
71.24 137
71.26 128
71.28 132
71.3 130
71.32 145
71.34 113
71.36 150
71.38 144
71.4 157
71.42 148
71.44 159
71.46 152
71.48 145
71.5 158
71.52 144
71.54 159
71.56 144
71.58 154
71.6 133
71.62 144
71.64 126
71.66 138
71.68 145
71.7 147
71.72 153
71.74 158
71.76 154
71.78 119
71.8 125
71.82 170
71.84 134
71.86 140
71.88 153
71.9 153
71.92 134
71.94 146
71.96 144
71.98 118
72 145
72.02 157
72.04 131
72.06 148
72.08 127
72.1 145
72.12 134
72.14 137
72.16 156
72.18 137
72.2 145
72.22 144
72.24 140
72.26 153
72.28 136
72.3 138
72.32 162
72.34 136
72.36 127
72.38 151
72.4 164
72.42 135
72.44 142
72.46 140
72.48 133
72.5 167
72.52 131
72.54 147
72.56 123
72.58 141
72.6 133
72.62 136
72.64 157
72.66 139
72.68 122
72.7 140
72.72 140
72.74 135
72.76 132
72.78 133
72.8 145
72.82 144
72.84 149
72.86 137
72.88 130
72.9 132
72.92 137
72.94 144
72.96 133
72.98 141
73 160
73.02 119
73.04 160
73.06 154
73.08 164
73.1 144
73.12 141
73.14 149
73.16 160
73.18 150
73.2 160
73.22 155
73.24 145
73.26 138
73.28 147
73.3 136
73.32 150
73.34 150
73.36 155
73.38 166
73.4 152
73.42 143
73.44 144
73.46 163
73.48 148
73.5 156
73.52 176
73.54 148
73.56 155
73.58 138
73.6 151
73.62 133
73.64 134
73.66 132
73.68 137
73.7 159
73.72 129
73.74 131
73.76 147
73.78 145
73.8 131
73.82 137
73.84 150
73.86 112
73.88 152
73.9 132
73.92 145
73.94 129
73.96 138
73.98 117
74 138
74.02 118
74.04 134
74.06 136
74.08 128
74.1 140
74.12 121
74.14 159
74.16 157
74.18 135
74.2 136
74.22 156
74.24 136
74.26 147
74.28 137
74.3 113
74.32 118
74.34 128
74.36 127
74.38 156
74.4 130
74.42 125
74.44 144
74.46 141
74.48 140
74.5 146
74.52 124
74.54 129
74.56 151
74.58 134
74.6 146
74.62 124
74.64 125
74.66 129
74.68 158
74.7 132
74.72 139
74.74 129
74.76 143
74.78 137
74.8 142
74.82 119
74.84 132
74.86 109
74.88 133
74.9 134
74.92 120
74.94 110
74.96 116
74.98 107
75 140
