2 2381
2.02 2297
2.04 2211
2.06 2077
2.08 2000
2.1 1868
2.12 1872
2.14 1713
2.16 1614
2.18 1722
2.2 1576
2.22 1541
2.24 1510
2.26 1497
2.28 1470
2.3 1525
2.32 1490
2.34 1443
2.36 1416
2.38 1442
2.4 1310
2.42 1365
2.44 1303
2.46 1298
2.48 1354
2.5 1271
2.52 1284
2.54 1279
2.56 1264
2.58 1221
2.6 1236
2.62 1201
2.64 1171
2.66 1151
2.68 1224
2.7 1158
2.72 1110
2.74 1131
2.76 1132
2.78 1093
2.8 1139
2.82 1187
2.84 1055
2.86 1134
2.88 1072
2.9 1049
2.92 1013
2.94 968
2.96 1038
2.98 979
3 1016
3.02 968
3.04 965
3.06 990
3.08 909
3.1 952
3.12 971
3.14 984
3.16 920
3.18 954
3.2 887
3.22 863
3.24 893
3.26 942
3.28 938
3.3 876
3.32 874
3.34 871
3.36 907
3.38 839
3.4 864
3.42 873
3.44 858
3.46 817
3.48 777
3.5 835
3.52 851
3.54 808
3.56 798
3.58 828
3.6 807
3.62 770
3.64 774
3.66 827
3.68 750
3.7 774
3.72 758
3.74 786
3.76 729
3.78 707
3.8 781
3.82 735
3.84 736
3.86 746
3.88 735
3.9 689
3.92 682
3.94 662
3.96 705
3.98 676
4 714
4.02 686
4.04 660
4.06 622
4.08 664
4.1 702
4.12 625
4.14 673
4.16 667
4.18 649
4.2 646
4.22 679
4.24 663
4.26 646
4.28 638
4.3 649
4.32 589
4.34 582
4.36 624
4.38 599
4.4 613
4.42 565
4.44 565
4.46 608
4.48 599
4.5 604
4.52 596
4.54 585
4.56 597
4.58 610
4.6 549
4.62 566
4.64 535
4.66 545
4.68 598
4.7 533
4.72 523
4.74 565
4.76 507
4.78 529
4.8 498
4.82 551
4.84 544
4.86 540
4.88 536
4.9 512
4.92 534
4.94 564
4.96 510
4.98 484
5 539
5.02 484
5.04 498
5.06 503
5.08 497
5.1 548
5.12 455
5.14 581
5.16 485
5.18 493
5.2 476
5.22 501
5.24 472
5.26 453
5.28 509
5.3 452
5.32 493
5.34 464
5.36 473
5.38 467
5.4 471
5.42 462
5.44 474
5.46 427
5.48 413
5.5 425
5.52 442
5.54 443
5.56 491
5.58 462
5.6 433
5.62 436
5.64 427
5.66 429
5.68 430
5.7 440
5.72 406
5.74 459
5.76 429
5.78 473
5.8 417
5.82 465
5.84 438
5.86 398
5.88 412
5.9 446
5.92 443
5.94 381
5.96 457
5.98 428
6 418
6.02 432
6.04 442
6.06 361
6.08 422
6.1 394
6.12 399
6.14 429
6.16 391
6.18 419
6.2 404
6.22 384
6.24 384
6.26 386
6.28 404
6.3 406
6.32 385
6.34 427
6.36 412
6.38 368
6.4 392
6.42 388
6.44 355
6.46 395
6.48 389
6.5 414
6.52 401
6.54 409
6.56 362
6.58 414
6.6 382
6.62 401
6.64 372
6.66 389
6.68 390
6.7 392
6.72 383
6.74 390
6.76 449
6.78 415
6.8 400
6.82 390
6.84 405
6.86 395
6.88 431
6.9 427
6.92 444
6.94 420
6.96 411
6.98 491
7 430
7.02 500
7.04 474
7.06 506
7.08 511
7.1 500
7.12 559
7.14 554
7.16 535
7.18 588
7.2 608
7.22 654
7.24 590
7.26 620
7.28 610
7.3 595
7.32 556
7.34 609
7.36 519
7.38 545
7.4 505
7.42 518
7.44 482
7.46 538
7.48 507
7.5 498
7.52 505
7.54 482
7.56 464
7.58 481
7.6 431
7.62 432
7.64 437
7.66 434
7.68 363
7.7 384
7.72 434
7.74 398
7.76 392
7.78 375
7.8 379
7.82 415
7.84 384
7.86 371
7.88 369
7.9 353
7.92 362
7.94 353
7.96 310
7.98 389
8 311
8.02 328
8.04 371
8.06 344
8.08 347
8.1 337
8.12 302
8.14 295
8.16 328
8.18 332
8.2 314
8.22 300
8.24 311
8.26 301
8.28 316
8.3 316
8.32 315
8.34 340
8.36 296
8.38 280
8.4 295
8.42 335
8.44 317
8.46 281
8.48 295
8.5 306
8.52 326
8.54 280
8.56 269
8.58 314
8.6 287
8.62 309
8.64 291
8.66 299
8.68 301
8.7 295
8.72 291
8.74 254
8.76 266
8.78 290
8.8 277
8.82 280
8.84 264
8.86 255
8.88 271
8.9 250
8.92 270
8.94 266
8.96 294
8.98 276
9 288
9.02 250
9.04 277
9.06 276
9.08 264
9.1 270
9.12 262
9.14 217
9.16 272
9.18 259
9.2 266
9.22 236
9.24 227
9.26 275
9.28 243
9.3 272
9.32 294
9.34 241
9.36 236
9.38 243
9.4 271
9.42 231
9.44 244
9.46 263
9.48 268
9.5 238
9.52 254
9.54 250
9.56 242
9.58 229
9.6 246
9.62 279
9.64 242
9.66 251
9.68 221
9.7 253
9.72 238
9.74 225
9.76 258
9.78 247
9.8 272
9.82 251
9.84 256
9.86 257
9.88 239
9.9 258
9.92 247
9.94 228
9.96 258
9.98 266
10 264
10.02 228
10.04 251
10.06 259
10.08 268
10.1 250
10.12 273
10.14 283
10.16 254
10.18 308
10.2 305
10.22 252
10.24 266
10.26 313
10.28 315
10.3 310
10.32 265
10.34 247
10.36 228
10.38 246
10.4 240
10.42 241
10.44 233
10.46 255
10.48 245
10.5 213
10.52 224
10.54 223
10.56 244
10.58 254
10.6 222
10.62 226
10.64 218
10.66 233
10.68 221
10.7 243
10.72 222
10.74 200
10.76 226
10.78 226
10.8 211
10.82 255
10.84 240
10.86 218
10.88 230
10.9 205
10.92 226
10.94 222
10.96 228
10.98 222
11 235
11.02 219
11.04 212
11.06 213
11.08 246
11.1 236
11.12 250
11.14 189
11.16 219
11.18 262
11.2 211
11.22 237
11.24 251
11.26 243
11.28 220
11.3 259
11.32 254
11.34 233
11.36 270
11.38 259
11.4 253
11.42 213
11.44 213
11.46 233
11.48 201
11.5 197
11.52 204
11.54 236
11.56 212
11.58 198
11.6 250
11.62 223
11.64 220
11.66 206
11.68 212
11.7 210
11.72 209
11.74 219
11.76 191
11.78 204
11.8 235
11.82 213
11.84 201
11.86 184
11.88 217
11.9 202
11.92 227
11.94 235
11.96 251
11.98 242
12 246
12.02 235
12.04 250
12.06 262
12.08 263
12.1 300
12.12 300
12.14 306
12.16 319
12.18 340
12.2 289
12.22 332
12.24 271
12.26 264
12.28 255
12.3 245
12.32 217
12.34 238
12.36 202
12.38 205
12.4 180
12.42 194
12.44 183
12.46 196
12.48 200
12.5 203
12.52 208
12.54 197
12.56 209
12.58 195
12.6 214
12.62 200
12.64 187
12.66 209
12.68 210
12.7 189
12.72 198
12.74 234
12.76 176
12.78 227
12.8 225
12.82 200
12.84 222
12.86 198
12.88 160
12.9 196
12.92 187
12.94 194
12.96 192
12.98 194
13 193
13.02 205
13.04 214
13.06 193
13.08 194
13.1 188
13.12 200
13.14 192
13.16 206
13.18 213
13.2 194
13.22 194
13.24 184
13.26 196
13.28 184
13.3 190
13.32 175
13.34 183
13.36 178
13.38 162
13.4 203
13.42 197
13.44 188
13.46 185
13.48 204
13.5 217
13.52 167
13.54 183
13.56 194
13.58 192
13.6 194
13.62 192
13.64 174
13.66 197
13.68 193
13.7 182
13.72 176
13.74 210
13.76 195
13.78 184
13.8 181
13.82 169
13.84 188
13.86 177
13.88 184
13.9 203
13.92 167
13.94 184
13.96 201
13.98 202
14 207
14.02 210
14.04 176
14.06 182
14.08 200
14.1 208
14.12 208
14.14 212
14.16 199
14.18 219
14.2 223
14.22 210
14.24 230
14.26 229
14.28 252
14.3 308
14.32 264
14.34 339
14.36 341
14.38 359
14.4 380
14.42 500
14.44 532
14.46 537
14.48 594
14.5 521
14.52 522
14.54 475
14.56 378
14.58 358
14.6 281
14.62 244
14.64 233
14.66 234
14.68 236
14.7 221
14.72 194
14.74 221
14.76 223
14.78 159
14.8 205
14.82 173
14.84 190
14.86 186
14.88 172
14.9 172
14.92 204
14.94 194
14.96 174
14.98 193
15 179
15.02 196
15.04 191
15.06 181
15.08 153
15.1 170
15.12 170
15.14 186
15.16 153
15.18 187
15.2 196
15.22 177
15.24 182
15.26 176
15.28 175
15.3 170
15.32 180
15.34 189
15.36 183
15.38 188
15.4 174
15.42 172
15.44 173
15.46 192
15.48 182
15.5 200
15.52 197
15.54 186
15.56 172
15.58 168
15.6 179
15.62 173
15.64 170
15.66 165
15.68 188
15.7 185
15.72 194
15.74 175
15.76 184
15.78 184
15.8 179
15.82 179
15.84 178
15.86 194
15.88 177
15.9 191
15.92 211
15.94 208
15.96 220
15.98 198
16 238
16.02 222
16.04 244
16.06 242
16.08 246
16.1 232
16.12 249
16.14 232
16.16 213
16.18 243
16.2 212
16.22 214
16.24 216
16.26 182
16.28 205
16.3 187
16.32 210
16.34 178
16.36 174
16.38 183
16.4 165
16.42 200
16.44 188
16.46 149
16.48 160
16.5 185
16.52 170
16.54 168
16.56 170
16.58 186
16.6 184
16.62 167
16.64 179
16.66 172
16.68 166
16.7 177
16.72 187
16.74 152
16.76 147
16.78 202
16.8 165
16.82 167
16.84 144
16.86 167
16.88 154
16.9 154
16.92 180
16.94 177
16.96 180
16.98 150
17 164
17.02 180
17.04 154
17.06 162
17.08 178
17.1 197
17.12 177
17.14 209
17.16 173
17.18 142
17.2 155
17.22 176
17.24 165
17.26 166
17.28 203
17.3 169
17.32 181
17.34 190
17.36 206
17.38 178
17.4 196
17.42 184
17.44 181
17.46 196
17.48 204
17.5 187
17.52 167
17.54 160
17.56 178
17.58 175
17.6 177
17.62 174
17.64 174
17.66 188
17.68 187
17.7 153
17.72 148
17.74 173
17.76 149
17.78 145
17.8 168
17.82 190
17.84 152
17.86 158
17.88 178
17.9 163
17.92 173
17.94 176
17.96 167
17.98 165
18 144
18.02 170
18.04 168
18.06 188
18.08 149
18.1 168
18.12 189
18.14 163
18.16 174
18.18 154
18.2 178
18.22 183
18.24 174
18.26 198
18.28 192
18.3 183
18.32 183
18.34 161
18.36 188
18.38 195
18.4 169
18.42 188
18.44 203
18.46 170
18.48 172
18.5 144
18.52 184
18.54 166
18.56 168
18.58 168
18.6 152
18.62 171
18.64 161
18.66 162
18.68 160
18.7 172
18.72 148
18.74 162
18.76 172
18.78 166
18.8 163
18.82 177
18.84 173
18.86 180
18.88 146
18.9 153
18.92 184
18.94 154
18.96 186
18.98 156
19 164
19.02 172
19.04 185
19.06 170
19.08 183
19.1 195
19.12 181
19.14 164
19.16 166
19.18 182
19.2 169
19.22 157
19.24 167
19.26 168
19.28 176
19.3 147
19.32 174
19.34 147
19.36 162
19.38 190
19.4 152
19.42 166
19.44 151
19.46 162
19.48 166
19.5 171
19.52 178
19.54 198
19.56 193
19.58 177
19.6 158
19.62 176
19.64 175
19.66 155
19.68 164
19.7 161
19.72 182
19.74 172
19.76 157
19.78 193
19.8 188
19.82 175
19.84 187
19.86 181
19.88 185
19.9 167
19.92 186
19.94 195
19.96 167
19.98 185
20 178
20.02 192
20.04 191
20.06 177
20.08 165
20.1 169
20.12 187
20.14 188
20.16 185
20.18 198
20.2 181
20.22 183
20.24 178
20.26 189
20.28 192
20.3 183
20.32 177
20.34 194
20.36 166
20.38 170
20.4 198
20.42 185
20.44 214
20.46 223
20.48 211
20.5 209
20.52 207
20.54 200
20.56 208
20.58 239
20.6 231
20.62 237
20.64 208
20.66 251
20.68 223
20.7 224
20.72 221
20.74 203
20.76 208
20.78 206
20.8 200
20.82 208
20.84 216
20.86 187
20.88 204
20.9 197
20.92 222
20.94 237
20.96 215
20.98 243
21 248
21.02 219
21.04 209
21.06 220
21.08 212
21.1 213
21.12 192
21.14 172
21.16 177
21.18 174
21.2 189
21.22 178
21.24 180
21.26 195
21.28 187
21.3 182
21.32 219
21.34 187
21.36 185
21.38 189
21.4 201
21.42 183
21.44 194
21.46 186
21.48 187
21.5 185
21.52 176
21.54 181
21.56 186
21.58 204
21.6 194
21.62 214
21.64 228
21.66 240
21.68 264
21.7 246
21.72 284
21.74 305
21.76 319
21.78 360
21.8 367
21.82 361
21.84 372
21.86 354
21.88 310
21.9 320
21.92 290
21.94 248
21.96 242
21.98 223
22 230
22.02 192
22.04 210
22.06 216
22.08 222
22.1 227
22.12 218
22.14 239
22.16 241
22.18 261
22.2 263
22.22 278
22.24 291
22.26 290
22.28 366
22.3 343
22.32 330
22.34 323
22.36 353
22.38 352
22.4 347
22.42 345
22.44 362
22.46 321
22.48 354
22.5 331
22.52 309
22.54 289
22.56 290
22.58 309
22.6 259
22.62 252
22.64 298
22.66 255
22.68 311
22.7 288
22.72 279
22.74 303
22.76 323
22.78 299
22.8 326
22.82 300
22.84 329
22.86 334
22.88 370
22.9 345
22.92 368
22.94 393
22.96 387
22.98 393
23 429
23.02 461
23.04 435
23.06 410
23.08 414
23.1 394
23.12 392
23.14 384
23.16 361
23.18 312
23.2 329
23.22 296
23.24 278
23.26 278
23.28 278
23.3 245
23.32 255
23.34 273
23.36 250
23.38 261
23.4 265
23.42 274
23.44 259
23.46 261
23.48 254
23.5 251
23.52 241
23.54 240
23.56 234
23.58 254
23.6 267
23.62 238
23.64 218
23.66 243
23.68 217
23.7 234
23.72 236
23.74 234
23.76 269
23.78 207
23.8 231
23.82 271
23.84 260
23.86 229
23.88 237
23.9 270
23.92 265
23.94 281
23.96 271
23.98 290
24 309
24.02 338
24.04 327
24.06 361
24.08 412
24.1 478
24.12 571
24.14 721
24.16 851
24.18 979
24.2 1094
24.22 1208
24.24 1254
24.26 1190
24.28 1055
24.3 850
24.32 704
24.34 507
24.36 452
24.38 353
24.4 321
24.42 294
24.44 302
24.46 257
24.48 267
24.5 276
24.52 252
24.54 263
24.56 249
24.58 241
24.6 260
24.62 268
24.64 250
24.66 255
24.68 244
24.7 255
24.72 252
24.74 247
24.76 231
24.78 242
24.8 256
24.82 233
24.84 247
24.86 262
24.88 261
24.9 250
24.92 247
24.94 252
24.96 220
24.98 247
25 258
25.02 253
25.04 264
25.06 253
25.08 267
25.1 263
25.12 243
25.14 242
25.16 252
25.18 254
25.2 221
25.22 269
25.24 235
25.26 258
25.28 242
25.3 219
25.32 240
25.34 228
25.36 266
25.38 244
25.4 256
25.42 296
25.44 331
25.46 386
25.48 412
25.5 404
25.52 520
25.54 572
25.56 653
25.58 737
25.6 703
25.62 720
25.64 659
25.66 572
25.68 486
25.7 404
25.72 381
25.74 295
25.76 281
25.78 296
25.8 267
25.82 228
25.84 246
25.86 225
25.88 227
25.9 263
25.92 229
25.94 254
25.96 227
25.98 204
26 216
26.02 215
26.04 211
26.06 222
26.08 230
26.1 209
26.12 208
26.14 218
26.16 232
26.18 228
26.2 222
26.22 215
26.24 197
26.26 240
26.28 208
26.3 212
26.32 200
26.34 204
26.36 200
26.38 207
26.4 204
26.42 205
26.44 221
26.46 238
26.48 271
26.5 261
26.52 268
26.54 281
26.56 308
26.58 305
26.6 321
26.62 316
26.64 317
26.66 316
26.68 322
26.7 302
26.72 307
26.74 311
26.76 299
26.78 292
26.8 272
26.82 273
26.84 228
26.86 217
26.88 235
26.9 212
26.92 199
26.94 184
26.96 173
26.98 204
27 176
27.02 198
27.04 210
27.06 210
27.08 179
27.1 192
27.12 188
27.14 201
27.16 216
27.18 222
27.2 185
27.22 214
27.24 225
27.26 235
27.28 305
27.3 245
27.32 313
27.34 329
27.36 378
27.38 367
27.4 378
27.42 423
27.44 376
27.46 350
27.48 337
27.5 299
27.52 311
27.54 298
27.56 257
27.58 268
27.6 262
27.62 282
27.64 263
27.66 253
27.68 278
27.7 257
27.72 276
27.74 251
27.76 284
27.78 254
27.8 233
27.82 258
27.84 274
27.86 254
27.88 284
27.9 280
27.92 268
27.94 297
27.96 287
27.98 312
28 266
28.02 305
28.04 291
28.06 333
28.08 308
28.1 363
28.12 382
28.14 377
28.16 379
28.18 393
28.2 437
28.22 440
28.24 431
28.26 412
28.28 422
28.3 366
28.32 308
28.34 330
28.36 276
28.38 234
28.4 204
28.42 211
28.44 213
28.46 195
28.48 196
28.5 212
28.52 190
28.54 182
28.56 207
28.58 182
28.6 187
28.62 186
28.64 169
28.66 192
28.68 179
28.7 184
28.72 204
28.74 184
28.76 162
28.78 181
28.8 214
28.82 184
28.84 178
28.86 192
28.88 185
28.9 173
28.92 207
28.94 219
28.96 223
28.98 212
29 204
29.02 214
29.04 219
29.06 246
29.08 252
29.1 278
29.12 287
29.14 304
29.16 352
29.18 376
29.2 446
29.22 452
29.24 483
29.26 506
29.28 504
29.3 487
29.32 424
29.34 383
29.36 366
29.38 291
29.4 330
29.42 301
29.44 324
29.46 319
29.48 331
29.5 321
29.52 333
29.54 351
29.56 336
29.58 357
29.6 364
29.62 400
29.64 371
29.66 425
29.68 365
29.7 406
29.72 379
29.74 362
29.76 356
29.78 302
29.8 348
29.82 295
29.84 261
29.86 290
29.88 238
29.9 264
29.92 235
29.94 250
29.96 215
29.98 230
30 230
30.02 229
30.04 219
30.06 212
30.08 204
30.1 205
30.12 200
30.14 208
30.16 214
30.18 195
30.2 195
30.22 200
30.24 194
30.26 216
30.28 196
30.3 196
30.32 214
30.34 206
30.36 209
30.38 222
30.4 224
30.42 230
30.44 268
30.46 279
30.48 276
30.5 281
30.52 303
30.54 288
30.56 355
30.58 370
30.6 377
30.62 389
30.64 415
30.66 426
30.68 433
30.7 479
30.72 519
30.74 514
30.76 592
30.78 693
30.8 758
30.82 829
30.84 1050
30.86 1326
30.88 1740
30.9 2218
30.92 2949
30.94 3738
30.96 4461
30.98 4915
31 5140
31.02 5150
31.04 4684
31.06 3853
31.08 3057
31.1 2111
31.12 1626
31.14 1159
31.16 868
31.18 650
31.2 581
31.22 465
31.24 445
31.26 422
31.28 383
31.3 347
31.32 333
31.34 307
31.36 277
31.38 263
31.4 244
31.42 244
31.44 249
31.46 227
31.48 244
31.5 256
31.52 245
31.54 219
31.56 255
31.58 271
31.6 214
31.62 223
31.64 246
31.66 226
31.68 210
31.7 237
31.72 225
31.74 231
31.76 229
31.78 231
31.8 262
31.82 238
31.84 211
31.86 212
31.88 238
31.9 217
31.92 271
31.94 289
31.96 264
31.98 245
32 280
32.02 259
32.04 304
32.06 260
32.08 270
32.1 282
32.12 290
32.14 299
32.16 343
32.18 333
32.2 397
32.22 483
32.24 552
32.26 605
32.28 637
32.3 678
32.32 737
32.34 731
32.36 799
32.38 759
32.4 740
32.42 840
32.44 886
32.46 950
32.48 997
32.5 1103
32.52 1024
32.54 1022
32.56 995
32.58 869
32.6 861
32.62 689
32.64 660
32.66 516
32.68 468
32.7 409
32.72 376
32.74 385
32.76 371
32.78 358
32.8 394
32.82 384
32.84 350
32.86 329
32.88 352
32.9 366
32.92 351
32.94 350
32.96 334
32.98 300
33 290
33.02 256
33.04 275
33.06 221
33.08 216
33.1 223
33.12 191
33.14 205
33.16 209
33.18 207
33.2 209
33.22 234
33.24 256
33.26 226
33.28 223
33.3 215
33.32 235
33.34 250
33.36 229
33.38 224
33.4 211
33.42 202
33.44 188
33.46 174
33.48 180
33.5 144
33.52 149
33.54 138
33.56 147
33.58 142
33.6 129
33.62 161
33.64 150
33.66 130
33.68 135
33.7 142
33.72 141
33.74 126
33.76 145
33.78 139
33.8 147
33.82 136
33.84 155
33.86 142
33.88 129
33.9 156
33.92 157
33.94 140
33.96 149
33.98 163
34 130
34.02 140
34.04 149
34.06 143
34.08 126
34.1 122
34.12 141
34.14 143
34.16 147
34.18 119
34.2 136
34.22 112
34.24 123
34.26 136
34.28 133
34.3 125
34.32 136
34.34 136
34.36 138
34.38 160
34.4 130
34.42 134
34.44 169
34.46 141
34.48 168
34.5 152
34.52 193
34.54 145
34.56 191
34.58 187
34.6 189
34.62 196
34.64 193
34.66 211
34.68 275
34.7 218
34.72 258
34.74 256
34.76 291
34.78 289
34.8 279
34.82 270
34.84 313
34.86 256
34.88 233
34.9 231
34.92 236
34.94 236
34.96 232
34.98 209
35 208
35.02 215
35.04 228
35.06 242
35.08 205
35.1 236
35.12 197
35.14 205
35.16 188
35.18 203
35.2 227
35.22 239
35.24 208
35.26 259
35.28 210
35.3 270
35.32 272
35.34 250
35.36 298
35.38 301
35.4 316
35.42 321
35.44 335
35.46 344
35.48 310
35.5 335
35.52 324
35.54 265
35.56 273
35.58 239
35.6 240
35.62 201
35.64 200
35.66 189
35.68 170
35.7 172
35.72 162
35.74 157
35.76 165
35.78 143
35.8 176
35.82 156
35.84 175
35.86 182
35.88 190
35.9 207
35.92 211
35.94 205
35.96 218
35.98 204
36 201
36.02 211
36.04 186
36.06 168
36.08 184
36.1 163
36.12 140
36.14 130
36.16 151
36.18 165
36.2 145
36.22 153
36.24 173
36.26 204
36.28 159
36.3 175
36.32 169
36.34 233
36.36 210
36.38 213
36.4 200
36.42 216
36.44 234
36.46 231
36.48 240
36.5 242
36.52 222
36.54 234
36.56 202
36.58 222
36.6 202
36.62 207
36.64 210
36.66 197
36.68 229
36.7 171
36.72 195
36.74 201
36.76 220
36.78 225
36.8 219
36.82 186
36.84 209
36.86 172
36.88 192
36.9 180
36.92 166
36.94 197
36.96 146
36.98 156
37 134
37.02 141
37.04 146
37.06 157
37.08 176
37.1 166
37.12 190
37.14 184
37.16 155
37.18 185
37.2 178
37.22 174
37.24 181
37.26 193
37.28 175
37.3 199
37.32 178
37.34 187
37.36 184
37.38 175
37.4 172
37.42 175
37.44 163
37.46 185
37.48 186
37.5 191
37.52 157
37.54 152
37.56 146
37.58 132
37.6 145
37.62 146
37.64 108
37.66 127
37.68 142
37.7 119
37.72 129
37.74 124
37.76 140
37.78 124
37.8 142
37.82 128
37.84 136
37.86 150
37.88 113
37.9 129
37.92 132
37.94 109
37.96 151
37.98 145
38 130
38.02 126
38.04 128
38.06 156
38.08 142
38.1 132
38.12 158
38.14 145
38.16 160
38.18 135
38.2 164
38.22 141
38.24 152
38.26 135
38.28 141
38.3 143
38.32 125
38.34 148
38.36 152
38.38 176
38.4 184
38.42 192
38.44 206
38.46 247
38.48 234
38.5 241
38.52 259
38.54 276
38.56 263
38.58 241
38.6 255
38.62 193
38.64 182
38.66 189
38.68 163
38.7 160
38.72 177
38.74 142
38.76 150
38.78 113
38.8 157
38.82 165
38.84 138
38.86 164
38.88 177
38.9 126
38.92 162
38.94 136
38.96 158
38.98 179
39 144
39.02 162
39.04 165
39.06 185
39.08 150
39.1 138
39.12 151
39.14 167
39.16 149
39.18 175
39.2 157
39.22 168
39.24 147
39.26 157
39.28 164
39.3 165
39.32 166
39.34 167
39.36 183
39.38 180
39.4 180
39.42 196
39.44 193
39.46 190
39.48 196
39.5 249
39.52 226
39.54 223
39.56 220
39.58 241
39.6 248
39.62 227
39.64 235
39.66 217
39.68 228
39.7 206
39.72 208
39.74 198
39.76 185
39.78 202
39.8 181
39.82 159
39.84 178
39.86 174
39.88 150
39.9 168
39.92 200
39.94 197
39.96 188
39.98 217
40 210
40.02 218
40.04 228
40.06 231
40.08 239
40.1 246
40.12 253
40.14 267
40.16 268
40.18 299
40.2 359
40.22 394
40.24 395
40.26 390
40.28 471
40.3 425
40.32 469
40.34 453
40.36 425
40.38 393
40.4 421
40.42 354
40.44 347
40.46 366
40.48 352
40.5 327
40.52 284
40.54 336
40.56 313
40.58 284
40.6 318
40.62 305
40.64 297
40.66 331
40.68 348
40.7 369
40.72 373
40.74 380
40.76 439
40.78 437
40.8 429
40.82 462
40.84 449
40.86 496
40.88 499
40.9 480
40.92 453
40.94 484
40.96 498
40.98 547
41 490
41.02 522
41.04 540
41.06 523
41.08 478
41.1 503
41.12 551
41.14 448
41.16 412
41.18 421
41.2 428
41.22 369
41.24 352
41.26 336
41.28 326
41.3 296
41.32 284
41.34 267
41.36 245
41.38 251
41.4 215
41.42 235
41.44 206
41.46 192
41.48 211
41.5 198
41.52 197
41.54 198
41.56 181
41.58 193
41.6 169
41.62 172
41.64 202
41.66 159
41.68 208
41.7 176
41.72 178
41.74 159
41.76 187
41.78 178
41.8 208
41.82 187
41.84 165
41.86 175
41.88 193
41.9 168
41.92 172
41.94 171
41.96 198
41.98 169
42 157
42.02 185
42.04 162
42.06 200
42.08 189
42.1 174
42.12 180
42.14 171
42.16 168
42.18 166
42.2 190
42.22 154
42.24 198
42.26 184
42.28 193
42.3 186
42.32 187
42.34 200
42.36 208
42.38 211
42.4 189
42.42 209
42.44 206
42.46 247
42.48 240
42.5 231
42.52 281
42.54 297
42.56 384
42.58 379
42.6 396
42.62 498
42.64 527
42.66 563
42.68 550
42.7 536
42.72 526
42.74 494
42.76 464
42.78 459
42.8 444
42.82 416
42.84 442
42.86 389
42.88 332
42.9 351
42.92 336
42.94 314
42.96 296
42.98 289
43 246
43.02 255
43.04 232
43.06 244
43.08 229
43.1 264
43.12 213
43.14 226
43.16 203
43.18 203
43.2 210
43.22 180
43.24 209
43.26 194
43.28 190
43.3 196
43.32 167
43.34 167
43.36 205
43.38 197
43.4 172
43.42 164
43.44 168
43.46 146
43.48 182
43.5 179
43.52 184
43.54 186
43.56 186
43.58 193
43.6 203
43.62 235
43.64 225
43.66 239
43.68 205
43.7 219
43.72 238
43.74 254
43.76 257
43.78 254
43.8 263
43.82 262
43.84 252
43.86 276
43.88 292
43.9 310
43.92 302
43.94 326
43.96 303
43.98 349
44 301
44.02 336
44.04 356
44.06 321
44.08 297
44.1 300
44.12 273
44.14 284
44.16 294
44.18 261
44.2 246
44.22 271
44.24 222
44.26 212
44.28 213
44.3 204
44.32 180
44.34 205
44.36 189
44.38 164
44.4 158
44.42 171
44.44 168
44.46 149
44.48 169
44.5 151
44.52 144
44.54 157
44.56 157
44.58 159
44.6 152
44.62 157
44.64 144
44.66 136
44.68 152
44.7 130
44.72 132
44.74 147
44.76 152
44.78 150
44.8 142
44.82 144
44.84 131
44.86 148
44.88 140
44.9 133
44.92 145
44.94 155
44.96 158
44.98 161
45 177
45.02 171
45.04 163
45.06 171
45.08 143
45.1 129
45.12 139
45.14 134
45.16 136
45.18 140
45.2 138
45.22 154
45.24 150
45.26 173
45.28 154
45.3 178
45.32 161
45.34 168
45.36 154
45.38 158
45.4 166
45.42 157
45.44 143
45.46 142
45.48 154
45.5 138
45.52 163
45.54 129
45.56 142
45.58 161
45.6 127
45.62 154
45.64 153
45.66 156
45.68 157
45.7 143
45.72 156
45.74 160
45.76 145
45.78 152
45.8 157
45.82 152
45.84 153
45.86 184
45.88 156
45.9 174
45.92 189
45.94 162
45.96 190
45.98 206
46 230
46.02 271
46.04 293
46.06 339
46.08 376
46.1 430
46.12 444
46.14 427
46.16 427
46.18 384
46.2 372
46.22 347
46.24 321
46.26 282
46.28 276
46.3 199
46.32 183
46.34 181
46.36 205
46.38 153
46.4 168
46.42 202
46.44 174
46.46 183
46.48 217
46.5 189
46.52 190
46.54 190
46.56 190
46.58 178
46.6 175
46.62 203
46.64 181
46.66 181
46.68 187
46.7 164
46.72 168
46.74 187
46.76 180
46.78 176
46.8 183
46.82 169
46.84 178
46.86 191
46.88 157
46.9 151
46.92 159
46.94 183
46.96 190
46.98 183
47 203
47.02 216
47.04 216
47.06 278
47.08 264
47.1 279
47.12 277
47.14 286
47.16 264
47.18 229
47.2 240
47.22 226
47.24 177
47.26 189
47.28 158
47.3 173
47.32 154
47.34 171
47.36 156
47.38 148
47.4 112
47.42 134
47.44 136
47.46 138
47.48 129
47.5 141
47.52 143
47.54 142
47.56 129
47.58 147
47.6 157
47.62 139
47.64 145
47.66 134
47.68 169
47.7 137
47.72 135
47.74 139
47.76 151
47.78 137
47.8 117
47.82 144
47.84 146
47.86 130
47.88 141
47.9 143
47.92 149
47.94 167
47.96 155
47.98 136
48 150
48.02 158
48.04 128
48.06 140
48.08 136
48.1 160
48.12 115
48.14 151
48.16 147
48.18 158
48.2 156
48.22 169
48.24 169
48.26 157
48.28 165
48.3 172
48.32 152
48.34 151
48.36 150
48.38 146
48.4 137
48.42 148
48.44 119
48.46 116
48.48 145
48.5 136
48.52 143
48.54 141
48.56 142
48.58 140
48.6 124
48.62 152
48.64 155
48.66 116
48.68 153
48.7 149
48.72 140
48.74 144
48.76 152
48.78 162
48.8 160
48.82 177
48.84 175
48.86 167
48.88 151
48.9 159
48.92 148
48.94 178
48.96 149
48.98 178
49 175
49.02 160
49.04 148
49.06 149
49.08 161
49.1 153
49.12 151
49.14 148
49.16 143
49.18 154
49.2 144
49.22 141
49.24 143
49.26 133
49.28 164
49.3 165
49.32 156
49.34 145
49.36 153
49.38 140
49.4 168
49.42 161
49.44 145
49.46 184
49.48 180
49.5 211
49.52 218
49.54 236
49.56 251
49.58 276
49.6 326
49.62 312
49.64 355
49.66 386
49.68 414
49.7 386
49.72 362
49.74 351
49.76 283
49.78 273
49.8 273
49.82 207
49.84 229
49.86 182
49.88 181
49.9 171
49.92 145
49.94 158
49.96 130
49.98 163
50 135
50.02 135
50.04 140
50.06 140
50.08 152
50.1 136
50.12 166
50.14 163
50.16 134
50.18 147
50.2 144
50.22 160
50.24 138
50.26 150
50.28 138
50.3 149
50.32 152
50.34 124
50.36 137
50.38 149
50.4 131
50.42 116
50.44 153
50.46 128
50.48 152
50.5 151
50.52 137
50.54 140
50.56 137
50.58 163
50.6 126
50.62 160
50.64 136
50.66 151
50.68 131
50.7 153
50.72 174
50.74 181
50.76 146
50.78 177
50.8 148
50.82 162
50.84 135
50.86 164
50.88 152
50.9 143
50.92 154
50.94 156
50.96 127
50.98 150
51 153
51.02 140
51.04 136
51.06 158
51.08 136
51.1 122
51.12 137
51.14 144
51.16 148
51.18 135
51.2 136
51.22 143
51.24 128
51.26 136
51.28 151
51.3 117
51.32 121
51.34 150
51.36 111
51.38 136
51.4 133
51.42 147
51.44 132
51.46 122
51.48 137
51.5 138
51.52 119
51.54 138
51.56 158
51.58 125
51.6 118
51.62 143
51.64 116
51.66 129
51.68 143
51.7 160
51.72 142
51.74 141
51.76 143
51.78 133
51.8 112
51.82 131
51.84 137
51.86 139
51.88 129
51.9 114
51.92 109
51.94 121
51.96 147
51.98 120
52 122
52.02 107
52.04 125
52.06 106
52.08 106
52.1 110
52.12 119
52.14 93
52.16 113
52.18 109
52.2 114
52.22 130
52.24 129
52.26 127
52.28 142
52.3 127
52.32 110
52.34 126
52.36 118
52.38 125
52.4 102
52.42 132
52.44 124
52.46 162
52.48 170
52.5 159
52.52 189
52.54 159
52.56 182
52.58 162
52.6 168
52.62 191
52.64 169
52.66 182
52.68 174
52.7 182
52.72 188
52.74 214
52.76 176
52.78 213
52.8 210
52.82 189
52.84 204
52.86 205
52.88 213
52.9 211
52.92 218
52.94 206
52.96 223
52.98 245
53 216
53.02 216
53.04 229
53.06 232
53.08 215
53.1 237
53.12 216
53.14 202
53.16 202
53.18 188
53.2 190
53.22 178
53.24 196
53.26 199
53.28 183
53.3 203
53.32 213
53.34 143
53.36 158
53.38 175
53.4 166
53.42 161
53.44 151
53.46 144
53.48 149
53.5 146
53.52 176
53.54 170
53.56 164
53.58 182
53.6 222
53.62 242
53.64 259
53.66 270
53.68 274
53.7 264
53.72 276
53.74 246
53.76 203
53.78 193
53.8 204
53.82 196
53.84 180
53.86 170
53.88 168
53.9 140
53.92 148
53.94 142
53.96 140
53.98 146
54 135
54.02 112
54.04 124
54.06 132
54.08 128
54.1 137
54.12 117
54.14 112
54.16 124
54.18 117
54.2 130
54.22 108
54.24 112
54.26 121
54.28 112
54.3 89
54.32 128
54.34 109
54.36 111
54.38 112
54.4 83
54.42 116
54.44 98
54.46 101
54.48 116
54.5 100
54.52 90
54.54 109
54.56 109
54.58 114
54.6 121
54.62 99
54.64 91
54.66 112
54.68 85
54.7 106
54.72 103
54.74 118
54.76 101
54.78 105
54.8 87
54.82 104
54.84 115
54.86 99
54.88 107
54.9 105
54.92 94
54.94 115
54.96 123
54.98 118
55 105
55.02 106
55.04 96
55.06 122
55.08 103
55.1 93
55.12 100
55.14 97
55.16 123
55.18 107
55.2 100
55.22 100
55.24 98
55.26 100
55.28 106
55.3 108
55.32 107
55.34 107
55.36 91
55.38 93
55.4 111
55.42 99
55.44 103
55.46 92
55.48 90
55.5 82
55.52 103
55.54 93
55.56 91
55.58 81
55.6 100
55.62 89
55.64 90
55.66 81
55.68 96
55.7 108
55.72 105
55.74 105
55.76 108
55.78 94
55.8 106
55.82 100
55.84 100
55.86 115
55.88 110
55.9 96
55.92 108
55.94 106
55.96 112
55.98 95
56 103
56.02 103
56.04 84
56.06 99
56.08 106
56.1 103
56.12 99
56.14 122
56.16 87
56.18 98
56.2 116
56.22 141
56.24 122
56.26 114
56.28 107
56.3 124
56.32 133
56.34 122
56.36 113
56.38 134
56.4 128
56.42 131
56.44 114
56.46 127
56.48 150
56.5 141
56.52 159
56.54 136
56.56 149
56.58 169
56.6 150
56.62 168
56.64 155
56.66 160
56.68 125
56.7 139
56.72 140
56.74 146
56.76 173
56.78 147
56.8 141
56.82 150
56.84 139
56.86 129
56.88 134
56.9 132
56.92 112
56.94 121
56.96 102
56.98 112
57 105
57.02 132
57.04 117
57.06 121
57.08 123
57.1 114
57.12 109
57.14 136
57.16 111
57.18 127
57.2 112
57.22 112
57.24 123
57.26 98
57.28 125
57.3 93
57.32 92
57.34 117
57.36 103
57.38 97
57.4 113
57.42 109
57.44 105
57.46 85
57.48 74
57.5 104
57.52 100
57.54 96
57.56 119
57.58 106
57.6 109
57.62 116
57.64 103
57.66 141
57.68 120
57.7 126
57.72 139
57.74 123
57.76 150
57.78 140
57.8 145
57.82 145
57.84 144
57.86 139
57.88 145
57.9 135
57.92 116
57.94 114
57.96 115
57.98 109
58 115
58.02 111
58.04 102
58.06 117
58.08 123
58.1 121
58.12 109
58.14 109
58.16 119
58.18 115
58.2 129
58.22 101
58.24 128
58.26 109
58.28 105
58.3 120
58.32 141
58.34 152
58.36 113
58.38 128
58.4 148
58.42 144
58.44 147
58.46 145
58.48 163
58.5 181
58.52 161
58.54 172
58.56 187
58.58 193
58.6 183
58.62 214
58.64 221
58.66 210
58.68 239
58.7 234
58.72 245
58.74 254
58.76 272
58.78 309
58.8 377
58.82 400
58.84 469
58.86 545
58.88 657
58.9 631
58.92 605
58.94 564
58.96 509
58.98 495
59 413
59.02 371
59.04 392
59.06 356
59.08 277
59.1 239
59.12 203
59.14 177
59.16 122
59.18 145
59.2 125
59.22 122
59.24 117
59.26 106
59.28 118
59.3 131
59.32 118
59.34 108
59.36 112
59.38 126
59.4 126
59.42 135
59.44 144
59.46 156
59.48 149
59.5 138
59.52 144
59.54 164
59.56 146
59.58 131
59.6 129
59.62 148
59.64 119
59.66 131
59.68 124
59.7 97
59.72 110
59.74 112
59.76 99
59.78 83
59.8 103
59.82 107
59.84 84
59.86 93
59.88 109
59.9 105
59.92 91
59.94 97
59.96 94
59.98 115
60 117
60.02 107
60.04 112
60.06 111
60.08 125
60.1 145
60.12 131
60.14 139
60.16 157
60.18 139
60.2 134
60.22 124
60.24 150
60.26 159
60.28 138
60.3 132
60.32 144
60.34 166
60.36 128
60.38 109
60.4 116
60.42 128
60.44 114
60.46 109
60.48 112
60.5 93
60.52 95
60.54 104
60.56 95
60.58 98
60.6 98
60.62 89
60.64 103
60.66 111
60.68 91
60.7 77
60.72 93
60.74 105
60.76 99
60.78 86
60.8 94
60.82 91
60.84 94
60.86 96
60.88 97
60.9 89
60.92 107
60.94 75
60.96 87
60.98 92
61 81
61.02 76
61.04 100
61.06 101
61.08 85
61.1 90
61.12 81
61.14 112
61.16 101
61.18 96
61.2 106
61.22 103
61.24 84
61.26 113
61.28 103
61.3 94
61.32 118
61.34 103
61.36 121
61.38 132
61.4 116
61.42 134
61.44 135
61.46 119
61.48 111
61.5 149
61.52 132
61.54 132
61.56 132
61.58 136
61.6 112
61.62 144
61.64 131
61.66 142
61.68 124
61.7 111
61.72 131
61.74 128
61.76 158
61.78 138
61.8 138
61.82 163
61.84 153
61.86 141
61.88 153
61.9 126
61.92 159
61.94 130
61.96 152
61.98 152
62 125
62.02 149
62.04 125
62.06 148
62.08 117
62.1 110
62.12 111
62.14 116
62.16 143
62.18 142
62.2 137
62.22 134
62.24 144
62.26 117
62.28 124
62.3 130
62.32 153
62.34 133
62.36 133
62.38 118
62.4 119
62.42 118
62.44 139
62.46 138
62.48 122
62.5 124
62.52 138
62.54 136
62.56 152
62.58 139
62.6 120
62.62 165
62.64 133
62.66 158
62.68 145
62.7 140
62.72 132
62.74 134
62.76 139
62.78 139
62.8 132
62.82 149
62.84 121
62.86 123
62.88 133
62.9 126
62.92 137
62.94 130
62.96 111
62.98 114
63 121
63.02 116
63.04 118
63.06 124
63.08 121
63.1 121
63.12 141
63.14 119
63.16 151
63.18 139
63.2 120
63.22 135
63.24 102
63.26 121
63.28 119
63.3 138
63.32 123
63.34 125
63.36 127
63.38 131
63.4 125
63.42 111
63.44 125
63.46 119
63.48 126
63.5 113
63.52 114
63.54 122
63.56 103
63.58 131
63.6 124
63.62 123
63.64 149
63.66 126
63.68 127
63.7 125
63.72 116
63.74 126
63.76 120
63.78 118
63.8 131
63.82 119
63.84 124
63.86 128
63.88 128
63.9 133
63.92 155
63.94 149
63.96 138
63.98 152
64 166
64.02 158
64.04 158
64.06 140
64.08 135
64.1 144
64.12 154
64.14 127
64.16 132
64.18 147
64.2 136
64.22 124
64.24 136
64.26 141
64.28 123
64.3 139
64.32 126
64.34 106
64.36 128
64.38 131
64.4 142
64.42 113
64.44 125
64.46 142
64.48 135
64.5 170
64.52 162
64.54 162
64.56 192
64.58 216
64.6 242
64.62 232
64.64 248
64.66 262
64.68 219
64.7 229
64.72 219
64.74 248
64.76 203
64.78 214
64.8 192
64.82 189
64.84 166
64.86 179
64.88 155
64.9 127
64.92 141
64.94 119
64.96 123
64.98 138
65 156
65.02 137
65.04 165
65.06 154
65.08 166
65.1 178
65.12 160
65.14 186
65.16 203
65.18 170
65.2 212
65.22 198
65.24 181
65.26 190
65.28 173
65.3 155
65.32 177
65.34 170
65.36 151
65.38 157
65.4 123
65.42 137
65.44 137
65.46 135
65.48 121
65.5 134
65.52 151
65.54 133
65.56 138
65.58 128
65.6 131
65.62 139
65.64 124
65.66 134
65.68 144
65.7 139
65.72 139
65.74 163
65.76 158
65.78 168
65.8 148
65.82 152
65.84 160
65.86 156
65.88 161
65.9 141
65.92 136
65.94 145
65.96 140
65.98 145
66 158
66.02 142
66.04 121
66.06 136
66.08 138
66.1 123
66.12 129
66.14 116
66.16 128
66.18 120
66.2 107
66.22 128
66.24 123
66.26 126
66.28 143
66.3 126
66.32 114
66.34 110
66.36 139
66.38 115
66.4 111
66.42 129
66.44 104
66.46 118
66.48 134
66.5 126
66.52 109
66.54 118
66.56 107
66.58 109
66.6 98
66.62 113
66.64 112
66.66 98
66.68 106
66.7 124
66.72 121
66.74 125
66.76 118
66.78 101
66.8 109
66.82 103
66.84 110
66.86 123
66.88 121
66.9 107
66.92 119
66.94 124
66.96 126
66.98 113
67 113
67.02 118
67.04 124
67.06 116
67.08 127
67.1 122
67.12 101
67.14 101
67.16 115
67.18 108
67.2 102
67.22 119
67.24 111
67.26 106
67.28 112
67.3 93
67.32 119
67.34 126
67.36 114
67.38 119
67.4 92
67.42 117
67.44 103
67.46 109
67.48 99
67.5 108
67.52 91
67.54 109
67.56 120
67.58 117
67.6 135
67.62 99
67.64 127
67.66 107
67.68 133
67.7 108
67.72 116
67.74 123
67.76 135
67.78 143
67.8 136
67.82 131
67.84 144
67.86 152
67.88 150
67.9 122
67.92 136
67.94 147
67.96 143
67.98 140
68 143
68.02 124
68.04 134
68.06 125
68.08 131
68.1 117
68.12 123
68.14 116
68.16 131
68.18 122
68.2 117
68.22 130
68.24 121
68.26 102
68.28 109
68.3 100
68.32 108
68.34 116
68.36 110
68.38 102
68.4 112
68.42 95
68.44 106
68.46 114
68.48 112
68.5 122
68.52 119
68.54 99
68.56 124
68.58 112
68.6 124
68.62 114
68.64 111
68.66 128
68.68 122
68.7 107
68.72 114
68.74 112
68.76 109
68.78 132
68.8 104
68.82 107
68.84 125
68.86 116
68.88 125
68.9 125
68.92 110
68.94 114
68.96 118
68.98 84
69 143
69.02 104
69.04 102
69.06 111
69.08 117
69.1 104
69.12 136
69.14 128
69.16 90
69.18 113
69.2 140
69.22 139
69.24 100
69.26 130
69.28 107
69.3 135
69.32 112
69.34 125
69.36 127
69.38 149
69.4 119
69.42 129
69.44 146
69.46 126
69.48 143
69.5 113
69.52 116
69.54 137
69.56 148
69.58 138
69.6 146
69.62 136
69.64 138
69.66 152
69.68 144
69.7 130
69.72 123
69.74 149
69.76 159
69.78 143
69.8 151
69.82 130
69.84 138
69.86 132
69.88 151
69.9 134
69.92 139
69.94 156
69.96 143
69.98 143
70 139
70.02 137
70.04 155
70.06 115
70.08 151
70.1 129
70.12 124
70.14 131
70.16 118
70.18 136
70.2 140
70.22 116
70.24 124
70.26 128
70.28 120
70.3 120
70.32 129
70.34 133
70.36 109
70.38 146
70.4 155
70.42 125
70.44 128
70.46 146
70.48 128
70.5 146
70.52 146
70.54 167
70.56 144
70.58 192
70.6 160
70.62 195
70.64 215
70.66 209
70.68 225
70.7 245
70.72 262
70.74 271
70.76 309
70.78 353
70.8 398
70.82 424
70.84 485
70.86 514
70.88 484
70.9 512
70.92 513
70.94 436
70.96 436
70.98 425
71 389
71.02 384
71.04 413
71.06 390
71.08 319
71.1 317
71.12 315
71.14 278
71.16 255
71.18 273
71.2 202
71.22 199
71.24 220
71.26 211
71.28 214
71.3 196
71.32 177
71.34 175
71.36 196
71.38 190
71.4 200
71.42 170
71.44 186
71.46 182
71.48 172
71.5 165
71.52 173
71.54 163
71.56 160
71.58 173
71.6 153
71.62 146
71.64 142
71.66 156
71.68 167
71.7 154
71.72 157
71.74 147
71.76 125
71.78 121
71.8 133
71.82 143
71.84 157
71.86 147
71.88 132
71.9 138
71.92 132
71.94 114
71.96 130
71.98 162
72 128
72.02 130
72.04 135
72.06 106
72.08 131
72.1 145
72.12 123
72.14 128
72.16 129
72.18 127
72.2 116
72.22 139
72.24 109
72.26 133
72.28 123
72.3 143
72.32 132
72.34 142
72.36 135
72.38 117
72.4 131
72.42 135
72.44 150
72.46 135
72.48 135
72.5 136
72.52 140
72.54 115
72.56 138
72.58 141
72.6 143
72.62 138
72.64 154
72.66 157
72.68 147
72.7 145
72.72 151
72.74 160
72.76 170
72.78 154
72.8 157
72.82 208
72.84 222
72.86 175
72.88 211
72.9 191
72.92 171
72.94 204
72.96 188
72.98 207
73 184
73.02 173
73.04 208
73.06 194
73.08 189
73.1 206
73.12 169
73.14 183
73.16 180
73.18 161
73.2 178
73.22 176
73.24 178
73.26 180
73.28 149
73.3 180
73.32 148
73.34 139
73.36 158
73.38 121
73.4 112
73.42 121
73.44 122
73.46 127
73.48 119
73.5 111
73.52 113
73.54 121
73.56 116
73.58 107
73.6 106
73.62 107
73.64 104
73.66 102
73.68 95
73.7 113
73.72 96
73.74 117
73.76 108
73.78 117
73.8 94
73.82 114
73.84 90
73.86 103
73.88 108
73.9 100
73.92 90
73.94 83
73.96 80
73.98 86
74 91
74.02 94
74.04 117
74.06 100
74.08 79
74.1 99
74.12 108
74.14 97
74.16 91
74.18 116
74.2 96
74.22 96
74.24 100
74.26 95
74.28 97
74.3 107
74.32 89
74.34 93
74.36 108
74.38 102
74.4 92
74.42 84
74.44 117
74.46 118
74.48 98
74.5 110
74.52 100
74.54 113
74.56 94
74.58 85
74.6 114
74.62 81
74.64 94
74.66 100
74.68 92
74.7 104
74.72 102
74.74 109
74.76 117
74.78 89
74.8 106
74.82 104
74.84 110
74.86 103
74.88 122
74.9 101
74.92 99
74.94 133
74.96 111
74.98 122
75 94
