2.00000 2334.000
2.02000 2222.000
2.04000 2031.000
2.06000 1972.000
2.08000 1896.000
2.10000 1701.000
2.12000 1683.000
2.14000 1647.000
2.16000 1595.000
2.18000 1567.000
2.20000 1525.000
2.22000 1501.000
2.24000 1466.000
2.26000 1418.000
2.28000 1413.000
2.30000 1344.000
2.32000 1351.000
2.34000 1356.000
2.36000 1295.000
2.38000 1301.000
2.40000 1309.000
2.42000 1274.000
2.44000 1288.000
2.46000 1268.000
2.48000 1190.000
2.50000 1208.000
2.52000 1236.000
2.54000 1202.000
2.56000 1226.000
2.58000 1157.000
2.60000 1194.000
2.62000 1128.000
2.64000 1128.000
2.66000 1179.000
2.68000 1161.000
2.70000 1088.000
2.72000 1112.000
2.74000 1055.000
2.76000 1126.000
2.78000 1046.000
2.80000 1149.000
2.82000 1083.000
2.84000 1017.000
2.86000 973.000
2.88000 1010.000
2.90000 1012.000
2.92000 1007.000
2.94000 1008.000
2.96000 977.000
2.98000 1021.000
3.00000 956.000
3.02000 1009.000
3.04000 958.000
3.06000 992.000
3.08000 923.000
3.10000 972.000
3.12000 911.000
3.14000 919.000
3.16000 973.000
3.18000 896.000
3.20000 872.000
3.22000 921.000
3.24000 877.000
3.26000 880.000
3.28000 864.000
3.30000 869.000
3.32000 879.000
3.34000 886.000
3.36000 804.000
3.38000 870.000
3.40000 831.000
3.42000 800.000
3.44000 841.000
3.46000 796.000
3.48000 878.000
3.50000 807.000
3.52000 774.000
3.54000 754.000
3.56000 786.000
3.58000 815.000
3.60000 814.000
3.62000 784.000
3.64000 717.000
3.66000 790.000
3.68000 740.000
3.70000 799.000
3.72000 748.000
3.74000 743.000
3.76000 810.000
3.78000 747.000
3.80000 747.000
3.82000 742.000
3.84000 700.000
3.86000 676.000
3.88000 736.000
3.90000 719.000
3.92000 741.000
3.94000 707.000
3.96000 678.000
3.98000 729.000
4.00000 762.000
4.02000 733.000
4.04000 678.000
4.06000 686.000
4.08000 706.000
4.10000 698.000
4.12000 699.000
4.14000 719.000
4.16000 668.000
4.18000 666.000
4.20000 688.000
4.22000 608.000
4.24000 684.000
4.26000 635.000
4.28000 691.000
4.30000 633.000
4.32000 655.000
4.34000 702.000
4.36000 633.000
4.38000 678.000
4.40000 667.000
4.42000 639.000
4.44000 664.000
4.46000 590.000
4.48000 630.000
4.50000 660.000
4.52000 649.000
4.54000 641.000
4.56000 642.000
4.58000 668.000
4.60000 641.000
4.62000 646.000
4.64000 587.000
4.66000 621.000
4.68000 604.000
4.70000 619.000
4.72000 630.000
4.74000 619.000
4.76000 603.000
4.78000 567.000
4.80000 631.000
4.82000 616.000
4.84000 588.000
4.86000 627.000
4.88000 615.000
4.90000 624.000
4.92000 613.000
4.94000 603.000
4.96000 581.000
4.98000 602.000
5.00000 608.000
5.02000 578.000
5.04000 611.000
5.06000 598.000
5.08000 609.000
5.10000 543.000
5.12000 573.000
5.14000 590.000
5.16000 545.000
5.18000 564.000
5.20000 584.000
5.22000 565.000
5.24000 552.000
5.26000 570.000
5.28000 616.000
5.30000 549.000
5.32000 513.000
5.34000 534.000
5.36000 563.000
5.38000 589.000
5.40000 500.000
5.42000 573.000
5.44000 522.000
5.46000 525.000
5.48000 511.000
5.50000 530.000
5.52000 556.000
5.54000 549.000
5.56000 598.000
5.58000 581.000
5.60000 546.000
5.62000 523.000
5.64000 552.000
5.66000 505.000
5.68000 538.000
5.70000 516.000
5.72000 569.000
5.74000 470.000
5.76000 532.000
5.78000 554.000
5.80000 546.000
5.82000 517.000
5.84000 510.000
5.86000 515.000
5.88000 525.000
5.90000 477.000
5.92000 554.000
5.94000 515.000
5.96000 539.000
5.98000 534.000
6.00000 553.000
6.02000 518.000
6.04000 510.000
6.06000 494.000
6.08000 503.000
6.10000 504.000
6.12000 468.000
6.14000 542.000
6.16000 508.000
6.18000 533.000
6.20000 515.000
6.22000 466.000
6.24000 535.000
6.26000 503.000
6.28000 529.000
6.30000 522.000
6.32000 547.000
6.34000 482.000
6.36000 520.000
6.38000 438.000
6.40000 485.000
6.42000 493.000
6.44000 493.000
6.46000 517.000
6.48000 499.000
6.50000 529.000
6.52000 475.000
6.54000 468.000
6.56000 463.000
6.58000 532.000
6.60000 477.000
6.62000 473.000
6.64000 514.000
6.66000 490.000
6.68000 474.000
6.70000 457.000
6.72000 527.000
6.74000 444.000
6.76000 485.000
6.78000 455.000
6.80000 485.000
6.82000 477.000
6.84000 515.000
6.86000 490.000
6.88000 475.000
6.90000 506.000
6.92000 437.000
6.94000 427.000
6.96000 488.000
6.98000 454.000
7.00000 474.000
7.02000 480.000
7.04000 448.000
7.06000 485.000
7.08000 476.000
7.10000 505.000
7.12000 507.000
7.14000 467.000
7.16000 442.000
7.18000 483.000
7.20000 492.000
7.22000 479.000
7.24000 463.000
7.26000 457.000
7.28000 489.000
7.30000 457.000
7.32000 498.000
7.34000 487.000
7.36000 468.000
7.38000 473.000
7.40000 460.000
7.42000 489.000
7.44000 447.000
7.46000 447.000
7.48000 463.000
7.50000 434.000
7.52000 463.000
7.54000 442.000
7.56000 482.000
7.58000 475.000
7.60000 451.000
7.62000 461.000
7.64000 464.000
7.66000 478.000
7.68000 474.000
7.70000 427.000
7.72000 429.000
7.74000 484.000
7.76000 457.000
7.78000 469.000
7.80000 458.000
7.82000 438.000
7.84000 486.000
7.86000 442.000
7.88000 444.000
7.90000 504.000
7.92000 462.000
7.94000 468.000
7.96000 450.000
7.98000 479.000
8.00000 456.000
8.02000 451.000
8.04000 490.000
8.06000 459.000
8.08000 471.000
8.10000 488.000
8.12000 436.000
8.14000 491.000
8.16000 480.000
8.18000 465.000
8.20000 484.000
8.22000 450.000
8.24000 480.000
8.26000 468.000
8.28000 479.000
8.30000 484.000
8.32000 479.000
8.34000 462.000
8.36000 459.000
8.38000 456.000
8.40000 490.000
8.42000 408.000
8.44000 489.000
8.46000 482.000
8.48000 500.000
8.50000 437.000
8.52000 469.000
8.54000 457.000
8.56000 481.000
8.58000 493.000
8.60000 436.000
8.62000 476.000
8.64000 453.000
8.66000 465.000
8.68000 474.000
8.70000 461.000
8.72000 461.000
8.74000 422.000
8.76000 466.000
8.78000 475.000
8.80000 467.000
8.82000 465.000
8.84000 451.000
8.86000 458.000
8.88000 457.000
8.90000 467.000
8.92000 431.000
8.94000 458.000
8.96000 488.000
8.98000 443.000
9.00000 454.000
9.02000 459.000
9.04000 471.000
9.06000 469.000
9.08000 437.000
9.10000 457.000
9.12000 437.000
9.14000 447.000
9.16000 451.000
9.18000 471.000
9.20000 474.000
9.22000 492.000
9.24000 456.000
9.26000 444.000
9.28000 456.000
9.30000 511.000
9.32000 432.000
9.34000 439.000
9.36000 480.000
9.38000 474.000
9.40000 478.000
9.42000 481.000
9.44000 448.000
9.46000 464.000
9.48000 511.000
9.50000 478.000
9.52000 456.000
9.54000 440.000
9.56000 460.000
9.58000 489.000
9.60000 469.000
9.62000 493.000
9.64000 470.000
9.66000 467.000
9.68000 466.000
9.70000 493.000
9.72000 472.000
9.74000 465.000
9.76000 508.000
9.78000 489.000
9.80000 489.000
9.82000 445.000
9.84000 521.000
9.86000 468.000
9.88000 476.000
9.90000 456.000
9.92000 480.000
9.94000 483.000
9.96000 481.000
9.98000 479.000
10.00000 470.000
10.02000 489.000
10.04000 528.000
10.06000 468.000
10.08000 458.000
10.10000 502.000
10.12000 512.000
10.14000 506.000
10.16000 508.000
10.18000 508.000
10.20000 483.000
10.22000 503.000
10.24000 454.000
10.26000 475.000
10.28000 480.000
10.30000 457.000
10.32000 480.000
10.34000 467.000
10.36000 512.000
10.38000 475.000
10.40000 478.000
10.42000 467.000
10.44000 511.000
10.46000 491.000
10.48000 487.000
10.50000 476.000
10.52000 492.000
10.54000 506.000
10.56000 477.000
10.58000 512.000
10.60000 554.000
10.62000 507.000
10.64000 487.000
10.66000 494.000
10.68000 523.000
10.70000 492.000
10.72000 509.000
10.74000 513.000
10.76000 455.000
10.78000 482.000
10.80000 515.000
10.82000 500.000
10.84000 487.000
10.86000 514.000
10.88000 506.000
10.90000 491.000
10.92000 488.000
10.94000 509.000
10.96000 474.000
10.98000 524.000
11.00000 483.000
11.02000 492.000
11.04000 526.000
11.06000 496.000
11.08000 531.000
11.10000 441.000
11.12000 457.000
11.14000 510.000
11.16000 486.000
11.18000 480.000
11.20000 512.000
11.22000 549.000
11.24000 497.000
11.26000 483.000
11.28000 514.000
11.30000 496.000
11.32000 504.000
11.34000 500.000
11.36000 513.000
11.38000 531.000
11.40000 490.000
11.42000 495.000
11.44000 501.000
11.46000 519.000
11.48000 524.000
11.50000 520.000
11.52000 465.000
11.54000 484.000
11.56000 493.000
11.58000 543.000
11.60000 515.000
11.62000 514.000
11.64000 504.000
11.66000 473.000
11.68000 511.000
11.70000 520.000
11.72000 532.000
11.74000 523.000
11.76000 544.000
11.78000 512.000
11.80000 527.000
11.82000 544.000
11.84000 534.000
11.86000 537.000
11.88000 521.000
11.90000 546.000
11.92000 554.000
11.94000 474.000
11.96000 553.000
11.98000 549.000
12.00000 517.000
12.02000 518.000
12.04000 533.000
12.06000 513.000
12.08000 515.000
12.10000 524.000
12.12000 538.000
12.14000 551.000
12.16000 558.000
12.18000 541.000
12.20000 528.000
12.22000 547.000
12.24000 505.000
12.26000 562.000
12.28000 539.000
12.30000 535.000
12.32000 534.000
12.34000 520.000
12.36000 531.000
12.38000 553.000
12.40000 533.000
12.42000 570.000
12.44000 518.000
12.46000 517.000
12.48000 514.000
12.50000 515.000
12.52000 550.000
12.54000 534.000
12.56000 519.000
12.58000 543.000
12.60000 545.000
12.62000 550.000
12.64000 534.000
12.66000 550.000
12.68000 582.000
12.70000 505.000
12.72000 499.000
12.74000 571.000
12.76000 509.000
12.78000 570.000
12.80000 537.000
12.82000 560.000
12.84000 569.000
12.86000 569.000
12.88000 538.000
12.90000 577.000
12.92000 578.000
12.94000 548.000
12.96000 521.000
12.98000 550.000
13.00000 563.000
13.02000 515.000
13.04000 529.000
13.06000 558.000
13.08000 605.000
13.10000 578.000
13.12000 553.000
13.14000 603.000
13.16000 537.000
13.18000 549.000
13.20000 582.000
13.22000 600.000
13.24000 530.000
13.26000 535.000
13.28000 576.000
13.30000 545.000
13.32000 541.000
13.34000 551.000
13.36000 545.000
13.38000 572.000
13.40000 551.000
13.42000 570.000
13.44000 554.000
13.46000 546.000
13.48000 528.000
13.50000 575.000
13.52000 578.000
13.54000 579.000
13.56000 585.000
13.58000 517.000
13.60000 592.000
13.62000 517.000
13.64000 561.000
13.66000 611.000
13.68000 617.000
13.70000 576.000
13.72000 558.000
13.74000 618.000
13.76000 530.000
13.78000 529.000
13.80000 559.000
13.82000 532.000
13.84000 565.000
13.86000 593.000
13.88000 549.000
13.90000 578.000
13.92000 592.000
13.94000 569.000
13.96000 609.000
13.98000 579.000
14.00000 612.000
14.02000 605.000
14.04000 573.000
14.06000 564.000
14.08000 642.000
14.10000 569.000
14.12000 548.000
14.14000 546.000
14.16000 637.000
14.18000 635.000
14.20000 601.000
14.22000 620.000
14.24000 603.000
14.26000 645.000
14.28000 568.000
14.30000 630.000
14.32000 614.000
14.34000 608.000
14.36000 576.000
14.38000 575.000
14.40000 590.000
14.42000 601.000
14.44000 632.000
14.46000 630.000
14.48000 612.000
14.50000 610.000
14.52000 598.000
14.54000 639.000
14.56000 610.000
14.58000 602.000
14.60000 605.000
14.62000 606.000
14.64000 595.000
14.66000 614.000
14.68000 610.000
14.70000 581.000
14.72000 668.000
14.74000 626.000
14.76000 678.000
14.78000 607.000
14.80000 589.000
14.82000 580.000
14.84000 653.000
14.86000 598.000
14.88000 669.000
14.90000 633.000
14.92000 609.000
14.94000 650.000
14.96000 560.000
14.98000 627.000
15.00000 660.000
15.02000 628.000
15.04000 627.000
15.06000 604.000
15.08000 645.000
15.10000 675.000
15.12000 649.000
15.14000 679.000
15.16000 669.000
15.18000 629.000
15.20000 603.000
15.22000 623.000
15.24000 701.000
15.26000 646.000
15.28000 641.000
15.30000 606.000
15.32000 678.000
15.34000 651.000
15.36000 625.000
15.38000 666.000
15.40000 632.000
15.42000 640.000
15.44000 690.000
15.46000 669.000
15.48000 668.000
15.50000 645.000
15.52000 704.000
15.54000 664.000
15.56000 678.000
15.58000 692.000
15.60000 704.000
15.62000 666.000
15.64000 672.000
15.66000 646.000
15.68000 729.000
15.70000 657.000
15.72000 676.000
15.74000 666.000
15.76000 712.000
15.78000 690.000
15.80000 705.000
15.82000 699.000
15.84000 687.000
15.86000 689.000
15.88000 700.000
15.90000 681.000
15.92000 673.000
15.94000 700.000
15.96000 682.000
15.98000 685.000
16.00000 714.000
16.02000 698.000
16.04000 731.000
16.06000 728.000
16.08000 705.000
16.10000 711.000
16.12000 654.000
16.14000 698.000
16.16000 705.000
16.18000 712.000
16.20000 705.000
16.22000 735.000
16.24000 716.000
16.26000 733.000
16.28000 713.000
16.30000 712.000
16.32000 695.000
16.34000 692.000
16.36000 671.000
16.38000 729.000
16.40000 713.000
16.42000 733.000
16.44000 771.000
16.46000 691.000
16.48000 712.000
16.50000 721.000
16.52000 718.000
16.54000 729.000
16.56000 737.000
16.58000 719.000
16.60000 768.000
16.62000 752.000
16.64000 765.000
16.66000 719.000
16.68000 706.000
16.70000 760.000
16.72000 721.000
16.74000 729.000
16.76000 732.000
16.78000 749.000
16.80000 733.000
16.82000 695.000
16.84000 680.000
16.86000 720.000
16.88000 785.000
16.90000 730.000
16.92000 745.000
16.94000 770.000
16.96000 744.000
16.98000 745.000
17.00000 733.000
17.02000 694.000
17.04000 781.000
17.06000 770.000
17.08000 743.000
17.10000 750.000
17.12000 721.000
17.14000 768.000
17.16000 774.000
17.18000 775.000
17.20000 792.000
17.22000 733.000
17.24000 765.000
17.26000 786.000
17.28000 806.000
17.30000 728.000
17.32000 790.000
17.34000 779.000
17.36000 742.000
17.38000 797.000
17.40000 754.000
17.42000 774.000
17.44000 741.000
17.46000 757.000
17.48000 829.000
17.50000 815.000
17.52000 853.000
17.54000 775.000
17.56000 794.000
17.58000 797.000
17.60000 820.000
17.62000 806.000
17.64000 794.000
17.66000 826.000
17.68000 791.000
17.70000 820.000
17.72000 802.000
17.74000 814.000
17.76000 764.000
17.78000 793.000
17.80000 806.000
17.82000 834.000
17.84000 774.000
17.86000 801.000
17.88000 797.000
17.90000 783.000
17.92000 800.000
17.94000 788.000
17.96000 748.000
17.98000 776.000
18.00000 819.000
18.02000 828.000
18.04000 742.000
18.06000 823.000
18.08000 880.000
18.10000 820.000
18.12000 806.000
18.14000 776.000
18.16000 775.000
18.18000 869.000
18.20000 829.000
18.22000 778.000
18.24000 841.000
18.26000 855.000
18.28000 851.000
18.30000 817.000
18.32000 839.000
18.34000 861.000
18.36000 855.000
18.38000 863.000
18.40000 823.000
18.42000 782.000
18.44000 842.000
18.46000 883.000
18.48000 840.000
18.50000 882.000
18.52000 790.000
18.54000 890.000
18.56000 829.000
18.58000 857.000
18.60000 850.000
18.62000 850.000
18.64000 826.000
18.66000 822.000
18.68000 846.000
18.70000 854.000
18.72000 822.000
18.74000 833.000
18.76000 858.000
18.78000 874.000
18.80000 831.000
18.82000 907.000
18.84000 835.000
18.86000 862.000
18.88000 865.000
18.90000 883.000
18.92000 858.000
18.94000 855.000
18.96000 845.000
18.98000 865.000
19.00000 900.000
19.02000 874.000
19.04000 867.000
19.06000 838.000
19.08000 891.000
19.10000 860.000
19.12000 847.000
19.14000 900.000
19.16000 890.000
19.18000 843.000
19.20000 896.000
19.22000 905.000
19.24000 846.000
19.26000 915.000
19.28000 866.000
19.30000 929.000
19.32000 903.000
19.34000 893.000
19.36000 847.000
19.38000 883.000
19.40000 868.000
19.42000 887.000
19.44000 877.000
19.46000 880.000
19.48000 886.000
19.50000 864.000
19.52000 915.000
19.54000 914.000
19.56000 959.000
19.58000 905.000
19.60000 880.000
19.62000 923.000
19.64000 894.000
19.66000 914.000
19.68000 941.000
19.70000 940.000
19.72000 924.000
19.74000 933.000
19.76000 891.000
19.78000 904.000
19.80000 947.000
19.82000 904.000
19.84000 919.000
19.86000 923.000
19.88000 906.000
19.90000 887.000
19.92000 923.000
19.94000 978.000
19.96000 894.000
19.98000 956.000
20.00000 887.000
20.02000 925.000
20.04000 910.000
20.06000 944.000
20.08000 917.000
20.10000 886.000
20.12000 934.000
20.14000 902.000
20.16000 897.000
20.18000 956.000
20.20000 923.000
20.22000 901.000
20.24000 940.000
20.26000 935.000
20.28000 975.000
20.30000 942.000
20.32000 904.000
20.34000 923.000
20.36000 949.000
20.38000 966.000
20.40000 995.000
20.42000 945.000
20.44000 950.000
20.46000 958.000
20.48000 941.000
20.50000 991.000
20.52000 897.000
20.54000 949.000
20.56000 948.000
20.58000 1001.000
20.60000 958.000
20.62000 977.000
20.64000 945.000
20.66000 1025.000
20.68000 902.000
20.70000 1015.000
20.72000 973.000
20.74000 932.000
20.76000 939.000
20.78000 965.000
20.80000 995.000
20.82000 953.000
20.84000 982.000
20.86000 971.000
20.88000 961.000
20.90000 919.000
20.92000 978.000
20.94000 927.000
20.96000 922.000
20.98000 971.000
21.00000 957.000
21.02000 1037.000
21.04000 971.000
21.06000 1001.000
21.08000 1007.000
21.10000 920.000
21.12000 998.000
21.14000 956.000
21.16000 987.000
21.18000 995.000
21.20000 966.000
21.22000 969.000
21.24000 981.000
21.26000 929.000
21.28000 982.000
21.30000 1012.000
21.32000 981.000
21.34000 963.000
21.36000 1008.000
21.38000 1005.000
21.40000 958.000
21.42000 979.000
21.44000 993.000
21.46000 1020.000
21.48000 968.000
21.50000 989.000
21.52000 1025.000
21.54000 1014.000
21.56000 1019.000
21.58000 1032.000
21.60000 1006.000
21.62000 1039.000
21.64000 953.000
21.66000 1041.000
21.68000 1000.000
21.70000 1090.000
21.72000 1025.000
21.74000 1022.000
21.76000 973.000
21.78000 1021.000
21.80000 996.000
21.82000 1015.000
21.84000 1049.000
21.86000 991.000
21.88000 1000.000
21.90000 1024.000
21.92000 1010.000
21.94000 1003.000
21.96000 1037.000
21.98000 1107.000
22.00000 1019.000
22.02000 1047.000
22.04000 1050.000
22.06000 1044.000
22.08000 1064.000
22.10000 1058.000
22.12000 1054.000
22.14000 1016.000
22.16000 1019.000
22.18000 1036.000
22.20000 1048.000
22.22000 1062.000
22.24000 1039.000
22.26000 1003.000
22.28000 988.000
22.30000 1047.000
22.32000 1057.000
22.34000 1070.000
22.36000 1095.000
22.38000 1044.000
22.40000 1063.000
22.42000 1083.000
22.44000 1079.000
22.46000 1089.000
22.48000 1043.000
22.50000 1100.000
22.52000 943.000
22.54000 1040.000
22.56000 1066.000
22.58000 1039.000
22.60000 1025.000
22.62000 1032.000
22.64000 1005.000
22.66000 1031.000
22.68000 1031.000
22.70000 1008.000
22.72000 1018.000
22.74000 1011.000
22.76000 1008.000
22.78000 1041.000
22.80000 1085.000
22.82000 1000.000
22.84000 1063.000
22.86000 1025.000
22.88000 1057.000
22.90000 1023.000
22.92000 1054.000
22.94000 1036.000
22.96000 1021.000
22.98000 1090.000
23.00000 1011.000
23.02000 1063.000
23.04000 997.000
23.06000 1087.000
23.08000 1044.000
23.10000 1112.000
23.12000 1100.000
23.14000 1032.000
23.16000 1002.000
23.18000 1055.000
23.20000 1085.000
23.22000 998.000
23.24000 1058.000
23.26000 1036.000
23.28000 1139.000
23.30000 964.000
23.32000 1055.000
23.34000 1015.000
23.36000 986.000
23.38000 1051.000
23.40000 1086.000
23.42000 1061.000
23.44000 1024.000
23.46000 1075.000
23.48000 1030.000
23.50000 1077.000
23.52000 1036.000
23.54000 1063.000
23.56000 1081.000
23.58000 970.000
23.60000 1041.000
23.62000 1046.000
23.64000 1007.000
23.66000 1033.000
23.68000 1077.000
23.70000 1021.000
23.72000 1035.000
23.74000 1023.000
23.76000 1031.000
23.78000 1034.000
23.80000 1036.000
23.82000 1031.000
23.84000 987.000
23.86000 1002.000
23.88000 1052.000
23.90000 1045.000
23.92000 1059.000
23.94000 1112.000
23.96000 1087.000
23.98000 1068.000
24.00000 1113.000
24.02000 1135.000
24.04000 1103.000
24.06000 1146.000
24.08000 1128.000
24.10000 1219.000
24.12000 1241.000
24.14000 1297.000
24.16000 1353.000
24.18000 1310.000
24.20000 1462.000
24.22000 1342.000
24.24000 1290.000
24.26000 1283.000
24.28000 1244.000
24.30000 1194.000
24.32000 1160.000
24.34000 1158.000
24.36000 1119.000
24.38000 1187.000
24.40000 1136.000
24.42000 1134.000
24.44000 1096.000
24.46000 1103.000
24.48000 1042.000
24.50000 1123.000
24.52000 1035.000
24.54000 1084.000
24.56000 1071.000
24.58000 1048.000
24.60000 1023.000
24.62000 1088.000
24.64000 1051.000
24.66000 1097.000
24.68000 1072.000
24.70000 1110.000
24.72000 1113.000
24.74000 1058.000
24.76000 1051.000
24.78000 1065.000
24.80000 1083.000
24.82000 1053.000
24.84000 1046.000
24.86000 1087.000
24.88000 1085.000
24.90000 1008.000
24.92000 1040.000
24.94000 1079.000
24.96000 1015.000
24.98000 991.000
25.00000 1017.000
25.02000 1020.000
25.04000 1025.000
25.06000 1095.000
25.08000 1013.000
25.10000 989.000
25.12000 991.000
25.14000 994.000
25.16000 986.000
25.18000 1013.000
25.20000 1064.000
25.22000 1012.000
25.24000 988.000
25.26000 989.000
25.28000 1012.000
25.30000 1034.000
25.32000 997.000
25.34000 1031.000
25.36000 1006.000
25.38000 995.000
25.40000 1051.000
25.42000 1044.000
25.44000 1033.000
25.46000 1039.000
25.48000 1089.000
25.50000 1140.000
25.52000 1077.000
25.54000 1089.000
25.56000 1054.000
25.58000 1067.000
25.60000 1077.000
25.62000 992.000
25.64000 982.000
25.66000 979.000
25.68000 997.000
25.70000 923.000
25.72000 916.000
25.74000 968.000
25.76000 926.000
25.78000 950.000
25.80000 931.000
25.82000 919.000
25.84000 902.000
25.86000 927.000
25.88000 959.000
25.90000 953.000
25.92000 954.000
25.94000 941.000
25.96000 893.000
25.98000 923.000
26.00000 914.000
26.02000 891.000
26.04000 872.000
26.06000 970.000
26.08000 893.000
26.10000 973.000
26.12000 854.000
26.14000 933.000
26.16000 884.000
26.18000 914.000
26.20000 904.000
26.22000 980.000
26.24000 931.000
26.26000 949.000
26.28000 933.000
26.30000 901.000
26.32000 888.000
26.34000 854.000
26.36000 853.000
26.38000 932.000
26.40000 916.000
26.42000 873.000
26.44000 913.000
26.46000 873.000
26.48000 931.000
26.50000 923.000
26.52000 898.000
26.54000 886.000
26.56000 860.000
26.58000 935.000
26.60000 892.000
26.62000 858.000
26.64000 876.000
26.66000 883.000
26.68000 906.000
26.70000 889.000
26.72000 867.000
26.74000 837.000
26.76000 908.000
26.78000 892.000
26.80000 843.000
26.82000 855.000
26.84000 819.000
26.86000 822.000
26.88000 929.000
26.90000 812.000
26.92000 845.000
26.94000 861.000
26.96000 855.000
26.98000 854.000
27.00000 789.000
27.02000 855.000
27.04000 871.000
27.06000 857.000
27.08000 861.000
27.10000 878.000
27.12000 847.000
27.14000 839.000
27.16000 842.000
27.18000 871.000
27.20000 872.000
27.22000 886.000
27.24000 861.000
27.26000 853.000
27.28000 843.000
27.30000 870.000
27.32000 899.000
27.34000 902.000
27.36000 973.000
27.38000 899.000
27.40000 878.000
27.42000 873.000
27.44000 890.000
27.46000 892.000
27.48000 828.000
27.50000 859.000
27.52000 808.000
27.54000 807.000
27.56000 798.000
27.58000 787.000
27.60000 840.000
27.62000 785.000
27.64000 785.000
27.66000 788.000
27.68000 785.000
27.70000 824.000
27.72000 868.000
27.74000 809.000
27.76000 797.000
27.78000 825.000
27.80000 792.000
27.82000 843.000
27.84000 769.000
27.86000 820.000
27.88000 804.000
27.90000 786.000
27.92000 811.000
27.94000 804.000
27.96000 794.000
27.98000 734.000
28.00000 740.000
28.02000 772.000
28.04000 751.000
28.06000 784.000
28.08000 824.000
28.10000 805.000
28.12000 729.000
28.14000 754.000
28.16000 761.000
28.18000 798.000
28.20000 783.000
28.22000 794.000
28.24000 746.000
28.26000 790.000
28.28000 791.000
28.30000 761.000
28.32000 735.000
28.34000 764.000
28.36000 723.000
28.38000 748.000
28.40000 706.000
28.42000 803.000
28.44000 736.000
28.46000 731.000
28.48000 702.000
28.50000 749.000
28.52000 716.000
28.54000 719.000
28.56000 698.000
28.58000 717.000
28.60000 723.000
28.62000 705.000
28.64000 687.000
28.66000 721.000
28.68000 722.000
28.70000 691.000
28.72000 708.000
28.74000 743.000
28.76000 756.000
28.78000 644.000
28.80000 718.000
28.82000 683.000
28.84000 672.000
28.86000 713.000
28.88000 706.000
28.90000 725.000
28.92000 698.000
28.94000 671.000
28.96000 671.000
28.98000 672.000
29.00000 705.000
29.02000 622.000
29.04000 716.000
29.06000 671.000
29.08000 630.000
29.10000 677.000
29.12000 664.000
29.14000 732.000
29.16000 646.000
29.18000 671.000
29.20000 678.000
29.22000 619.000
29.24000 686.000
29.26000 671.000
29.28000 629.000
29.30000 674.000
29.32000 720.000
29.34000 701.000
29.36000 699.000
29.38000 697.000
29.40000 664.000
29.42000 662.000
29.44000 665.000
29.46000 641.000
29.48000 697.000
29.50000 701.000
29.52000 684.000
29.54000 707.000
29.56000 693.000
29.58000 696.000
29.60000 704.000
29.62000 696.000
29.64000 685.000
29.66000 713.000
29.68000 729.000
29.70000 733.000
29.72000 762.000
29.74000 714.000
29.76000 738.000
29.78000 696.000
29.80000 792.000
29.82000 735.000
29.84000 720.000
29.86000 691.000
29.88000 638.000
29.90000 656.000
29.92000 652.000
29.94000 661.000
29.96000 671.000
29.98000 635.000
30.00000 634.000
30.02000 671.000
30.04000 621.000
30.06000 658.000
30.08000 660.000
30.10000 590.000
30.12000 656.000
30.14000 609.000
30.16000 615.000
30.18000 624.000
30.20000 578.000
30.22000 659.000
30.24000 611.000
30.26000 617.000
30.28000 644.000
30.30000 647.000
30.32000 614.000
30.34000 565.000
30.36000 610.000
30.38000 607.000
30.40000 632.000
30.42000 683.000
30.44000 693.000
30.46000 622.000
30.48000 643.000
30.50000 574.000
30.52000 611.000
30.54000 567.000
30.56000 632.000
30.58000 629.000
30.60000 628.000
30.62000 635.000
30.64000 730.000
30.66000 748.000
30.68000 753.000
30.70000 762.000
30.72000 761.000
30.74000 892.000
30.76000 926.000
30.78000 978.000
30.80000 994.000
30.82000 1168.000
30.84000 1168.000
30.86000 1417.000
30.88000 1529.000
30.90000 1650.000
30.92000 1786.000
30.94000 1949.000
30.96000 2094.000
30.98000 1978.000
31.00000 2003.000
31.02000 1726.000
31.04000 1511.000
31.06000 1290.000
31.08000 1100.000
31.10000 967.000
31.12000 872.000
31.14000 777.000
31.16000 735.000
31.18000 750.000
31.20000 716.000
31.22000 703.000
31.24000 704.000
31.26000 680.000
31.28000 656.000
31.30000 726.000
31.32000 687.000
31.34000 624.000
31.36000 672.000
31.38000 629.000
31.40000 671.000
31.42000 630.000
31.44000 665.000
31.46000 628.000
31.48000 650.000
31.50000 642.000
31.52000 608.000
31.54000 614.000
31.56000 591.000
31.58000 623.000
31.60000 596.000
31.62000 581.000
31.64000 625.000
31.66000 590.000
31.68000 612.000
31.70000 579.000
31.72000 613.000
31.74000 585.000
31.76000 585.000
31.78000 602.000
31.80000 566.000
31.82000 584.000
31.84000 572.000
31.86000 595.000
31.88000 625.000
31.90000 638.000
31.92000 642.000
31.94000 640.000
31.96000 652.000
31.98000 670.000
32.00000 675.000
32.02000 675.000
32.04000 632.000
32.06000 654.000
32.08000 640.000
32.10000 603.000
32.12000 599.000
32.14000 625.000
32.16000 643.000
32.18000 655.000
32.20000 596.000
32.22000 643.000
32.24000 626.000
32.26000 675.000
32.28000 735.000
32.30000 682.000
32.32000 673.000
32.34000 731.000
32.36000 672.000
32.38000 694.000
32.40000 681.000
32.42000 697.000
32.44000 687.000
32.46000 689.000
32.48000 651.000
32.50000 683.000
32.52000 720.000
32.54000 621.000
32.56000 668.000
32.58000 641.000
32.60000 609.000
32.62000 619.000
32.64000 554.000
32.66000 594.000
32.68000 570.000
32.70000 573.000
32.72000 597.000
32.74000 550.000
32.76000 569.000
32.78000 562.000
32.80000 533.000
32.82000 576.000
32.84000 588.000
32.86000 526.000
32.88000 530.000
32.90000 485.000
32.92000 552.000
32.94000 523.000
32.96000 532.000
32.98000 559.000
33.00000 526.000
33.02000 520.000
33.04000 531.000
33.06000 491.000
33.08000 503.000
33.10000 513.000
33.12000 497.000
33.14000 505.000
33.16000 521.000
33.18000 484.000
33.20000 483.000
33.22000 486.000
33.24000 498.000
33.26000 500.000
33.28000 510.000
33.30000 489.000
33.32000 473.000
33.34000 520.000
33.36000 456.000
33.38000 495.000
33.40000 462.000
33.42000 482.000
33.44000 470.000
33.46000 498.000
33.48000 527.000
33.50000 492.000
33.52000 477.000
33.54000 442.000
33.56000 472.000
33.58000 482.000
33.60000 470.000
33.62000 469.000
33.64000 492.000
33.66000 486.000
33.68000 460.000
33.70000 461.000
33.72000 438.000
33.74000 492.000
33.76000 504.000
33.78000 476.000
33.80000 454.000
33.82000 468.000
33.84000 421.000
33.86000 465.000
33.88000 463.000
33.90000 462.000
33.92000 501.000
33.94000 466.000
33.96000 503.000
33.98000 488.000
34.00000 495.000
34.02000 445.000
34.04000 463.000
34.06000 479.000
34.08000 442.000
34.10000 525.000
34.12000 455.000
34.14000 506.000
34.16000 499.000
34.18000 504.000
34.20000 480.000
34.22000 453.000
34.24000 503.000
34.26000 443.000
34.28000 480.000
34.30000 441.000
34.32000 466.000
34.34000 466.000
34.36000 444.000
34.38000 475.000
34.40000 493.000
34.42000 447.000
34.44000 515.000
34.46000 402.000
34.48000 444.000
34.50000 475.000
34.52000 441.000
34.54000 462.000
34.56000 495.000
34.58000 516.000
34.60000 514.000
34.62000 477.000
34.64000 464.000
34.66000 522.000
34.68000 466.000
34.70000 514.000
34.72000 541.000
34.74000 505.000
34.76000 509.000
34.78000 494.000
34.80000 538.000
34.82000 505.000
34.84000 539.000
34.86000 448.000
34.88000 492.000
34.90000 510.000
34.92000 481.000
34.94000 470.000
34.96000 525.000
34.98000 455.000
35.00000 475.000
35.02000 484.000
35.04000 462.000
35.06000 490.000
35.08000 459.000
35.10000 462.000
35.12000 507.000
35.14000 486.000
35.16000 473.000
35.18000 490.000
35.20000 470.000
35.22000 476.000
35.24000 450.000
35.26000 478.000
35.28000 481.000
35.30000 493.000
35.32000 443.000
35.34000 467.000
35.36000 480.000
35.38000 454.000
35.40000 499.000
35.42000 463.000
35.44000 473.000
35.46000 485.000
35.48000 466.000
35.50000 449.000
35.52000 466.000
35.54000 468.000
35.56000 474.000
35.58000 453.000
35.60000 474.000
35.62000 445.000
35.64000 448.000
35.66000 450.000
35.68000 414.000
35.70000 428.000
35.72000 426.000
35.74000 425.000
35.76000 468.000
35.78000 436.000
35.80000 456.000
35.82000 443.000
35.84000 427.000
35.86000 444.000
35.88000 497.000
35.90000 454.000
35.92000 476.000
35.94000 484.000
35.96000 455.000
35.98000 442.000
36.00000 427.000
36.02000 429.000
36.04000 436.000
36.06000 451.000
36.08000 422.000
36.10000 408.000
36.12000 428.000
36.14000 452.000
36.16000 433.000
36.18000 458.000
36.20000 453.000
36.22000 382.000
36.24000 460.000
36.26000 433.000
36.28000 400.000
36.30000 425.000
36.32000 429.000
36.34000 449.000
36.36000 446.000
36.38000 429.000
36.40000 421.000
36.42000 396.000
36.44000 441.000
36.46000 409.000
36.48000 409.000
36.50000 407.000
36.52000 447.000
36.54000 420.000
36.56000 424.000
36.58000 416.000
36.60000 400.000
36.62000 403.000
36.64000 430.000
36.66000 436.000
36.68000 437.000
36.70000 408.000
36.72000 420.000
36.74000 437.000
36.76000 410.000
36.78000 394.000
36.80000 390.000
36.82000 415.000
36.84000 384.000
36.86000 428.000
36.88000 414.000
36.90000 428.000
36.92000 406.000
36.94000 442.000
36.96000 426.000
36.98000 404.000
37.00000 440.000
37.02000 358.000
37.04000 398.000
37.06000 429.000
37.08000 422.000
37.10000 442.000
37.12000 440.000
37.14000 391.000
37.16000 389.000
37.18000 410.000
37.20000 385.000
37.22000 379.000
37.24000 429.000
37.26000 389.000
37.28000 418.000
37.30000 425.000
37.32000 378.000
37.34000 409.000
37.36000 438.000
37.38000 391.000
37.40000 414.000
37.42000 427.000
37.44000 380.000
37.46000 418.000
37.48000 392.000
37.50000 404.000
37.52000 397.000
37.54000 393.000
37.56000 399.000
37.58000 402.000
37.60000 441.000
37.62000 469.000
37.64000 385.000
37.66000 418.000
37.68000 407.000
37.70000 435.000
37.72000 387.000
37.74000 404.000
37.76000 376.000
37.78000 388.000
37.80000 432.000
37.82000 417.000
37.84000 378.000
37.86000 414.000
37.88000 426.000
37.90000 406.000
37.92000 393.000
37.94000 406.000
37.96000 407.000
37.98000 402.000
38.00000 379.000
38.02000 383.000
38.04000 386.000
38.06000 371.000
38.08000 416.000
38.10000 386.000
38.12000 378.000
38.14000 366.000
38.16000 426.000
38.18000 394.000
38.20000 372.000
38.22000 406.000
38.24000 390.000
38.26000 392.000
38.28000 384.000
38.30000 355.000
38.32000 404.000
38.34000 375.000
38.36000 408.000
38.38000 447.000
38.40000 399.000
38.42000 397.000
38.44000 439.000
38.46000 394.000
38.48000 384.000
38.50000 363.000
38.52000 374.000
38.54000 389.000
38.56000 369.000
38.58000 422.000
38.60000 381.000
38.62000 397.000
38.64000 419.000
38.66000 429.000
38.68000 371.000
38.70000 372.000
38.72000 371.000
38.74000 401.000
38.76000 373.000
38.78000 393.000
38.80000 427.000
38.82000 401.000
38.84000 395.000
38.86000 384.000
38.88000 366.000
38.90000 384.000
38.92000 373.000
38.94000 412.000
38.96000 384.000
38.98000 401.000
39.00000 371.000
39.02000 404.000
39.04000 390.000
39.06000 388.000
39.08000 393.000
39.10000 356.000
39.12000 355.000
39.14000 366.000
39.16000 411.000
39.18000 387.000
39.20000 341.000
39.22000 409.000
39.24000 370.000
39.26000 407.000
39.28000 374.000
39.30000 392.000
39.32000 392.000
39.34000 413.000
39.36000 381.000
39.38000 381.000
39.40000 403.000
39.42000 379.000
39.44000 390.000
39.46000 403.000
39.48000 401.000
39.50000 384.000
39.52000 388.000
39.54000 407.000
39.56000 427.000
39.58000 412.000
39.60000 395.000
39.62000 402.000
39.64000 353.000
39.66000 397.000
39.68000 404.000
39.70000 387.000
39.72000 432.000
39.74000 383.000
39.76000 390.000
39.78000 382.000
39.80000 374.000
39.82000 398.000
39.84000 397.000
39.86000 366.000
39.88000 406.000
39.90000 367.000
39.92000 397.000
39.94000 383.000
39.96000 405.000
39.98000 410.000
40.00000 395.000
40.02000 434.000
40.04000 385.000
40.06000 380.000
40.08000 444.000
40.10000 375.000
40.12000 436.000
40.14000 419.000
40.16000 427.000
40.18000 401.000
40.20000 407.000
40.22000 429.000
40.24000 421.000
40.26000 407.000
40.28000 397.000
40.30000 407.000
40.32000 425.000
40.34000 416.000
40.36000 432.000
40.38000 380.000
40.40000 419.000
40.42000 416.000
40.44000 375.000
40.46000 404.000
40.48000 431.000
40.50000 443.000
40.52000 430.000
40.54000 465.000
40.56000 435.000
40.58000 428.000
40.60000 419.000
40.62000 424.000
40.64000 404.000
40.66000 415.000
40.68000 440.000
40.70000 427.000
40.72000 463.000
40.74000 455.000
40.76000 464.000
40.78000 447.000
40.80000 462.000
40.82000 438.000
40.84000 448.000
40.86000 448.000
40.88000 418.000
40.90000 452.000
40.92000 445.000
40.94000 477.000
40.96000 489.000
40.98000 460.000
41.00000 448.000
41.02000 450.000
41.04000 434.000
41.06000 454.000
41.08000 503.000
41.10000 427.000
41.12000 435.000
41.14000 443.000
41.16000 393.000
41.18000 407.000
41.20000 413.000
41.22000 400.000
41.24000 424.000
41.26000 393.000
41.28000 404.000
41.30000 411.000
41.32000 379.000
41.34000 408.000
41.36000 451.000
41.38000 393.000
41.40000 416.000
41.42000 410.000
41.44000 380.000
41.46000 394.000
41.48000 394.000
41.50000 409.000
41.52000 382.000
41.54000 393.000
41.56000 405.000
41.58000 406.000
41.60000 406.000
41.62000 421.000
41.64000 428.000
41.66000 403.000
41.68000 380.000
41.70000 383.000
41.72000 370.000
41.74000 368.000
41.76000 372.000
41.78000 419.000
41.80000 415.000
41.82000 397.000
41.84000 368.000
41.86000 406.000
41.88000 408.000
41.90000 412.000
41.92000 425.000
41.94000 397.000
41.96000 389.000
41.98000 369.000
42.00000 337.000
42.02000 402.000
42.04000 408.000
42.06000 438.000
42.08000 402.000
42.10000 348.000
42.12000 410.000
42.14000 367.000
42.16000 406.000
42.18000 390.000
42.20000 401.000
42.22000 372.000
42.24000 403.000
42.26000 391.000
42.28000 339.000
42.30000 381.000
42.32000 388.000
42.34000 393.000
42.36000 385.000
42.38000 380.000
42.40000 379.000
42.42000 380.000
42.44000 391.000
42.46000 446.000
42.48000 412.000
42.50000 426.000
42.52000 424.000
42.54000 425.000
42.56000 436.000
42.58000 468.000
42.60000 493.000
42.62000 455.000
42.64000 476.000
42.66000 444.000
42.68000 427.000
42.70000 445.000
42.72000 396.000
42.74000 408.000
42.76000 409.000
42.78000 396.000
42.80000 406.000
42.82000 412.000
42.84000 371.000
42.86000 415.000
42.88000 395.000
42.90000 393.000
42.92000 383.000
42.94000 385.000
42.96000 392.000
42.98000 384.000
43.00000 377.000
43.02000 391.000
43.04000 376.000
43.06000 355.000
43.08000 381.000
43.10000 372.000
43.12000 419.000
43.14000 384.000
43.16000 378.000
43.18000 370.000
43.20000 327.000
43.22000 368.000
43.24000 379.000
43.26000 396.000
43.28000 367.000
43.30000 361.000
43.32000 374.000
43.34000 358.000
43.36000 387.000
43.38000 400.000
43.40000 375.000
43.42000 376.000
43.44000 345.000
43.46000 395.000
43.48000 368.000
43.50000 364.000
43.52000 375.000
43.54000 363.000
43.56000 368.000
43.58000 373.000
43.60000 375.000
43.62000 412.000
43.64000 359.000
43.66000 392.000
43.68000 405.000
43.70000 373.000
43.72000 362.000
43.74000 401.000
43.76000 393.000
43.78000 365.000
43.80000 385.000
43.82000 368.000
43.84000 387.000
43.86000 359.000
43.88000 348.000
43.90000 379.000
43.92000 354.000
43.94000 411.000
43.96000 371.000
43.98000 415.000
44.00000 378.000
44.02000 385.000
44.04000 393.000
44.06000 399.000
44.08000 379.000
44.10000 390.000
44.12000 351.000
44.14000 409.000
44.16000 383.000
44.18000 394.000
44.20000 361.000
44.22000 374.000
44.24000 369.000
44.26000 382.000
44.28000 394.000
44.30000 387.000
44.32000 368.000
44.34000 384.000
44.36000 369.000
44.38000 351.000
44.40000 372.000
44.42000 355.000
44.44000 354.000
44.46000 380.000
44.48000 368.000
44.50000 354.000
44.52000 343.000
44.54000 352.000
44.56000 343.000
44.58000 373.000
44.60000 364.000
44.62000 362.000
44.64000 360.000
44.66000 373.000
44.68000 354.000
44.70000 353.000
44.72000 402.000
44.74000 352.000
44.76000 339.000
44.78000 345.000
44.80000 362.000
44.82000 326.000
44.84000 376.000
44.86000 337.000
44.88000 314.000
44.90000 338.000
44.92000 371.000
44.94000 389.000
44.96000 357.000
44.98000 366.000
45.00000 388.000
45.02000 373.000
45.04000 373.000
45.06000 325.000
45.08000 363.000
45.10000 376.000
45.12000 345.000
45.14000 369.000
45.16000 396.000
45.18000 354.000
45.20000 342.000
45.22000 361.000
45.24000 356.000
45.26000 347.000
45.28000 356.000
45.30000 363.000
45.32000 361.000
45.34000 374.000
45.36000 369.000
45.38000 342.000
45.40000 387.000
45.42000 377.000
45.44000 374.000
45.46000 346.000
45.48000 370.000
45.50000 349.000
45.52000 387.000
45.54000 375.000
45.56000 346.000
45.58000 366.000
45.60000 397.000
45.62000 345.000
45.64000 367.000
45.66000 358.000
45.68000 345.000
45.70000 339.000
45.72000 349.000
45.74000 362.000
45.76000 348.000
45.78000 343.000
45.80000 417.000
45.82000 340.000
45.84000 377.000
45.86000 357.000
45.88000 359.000
45.90000 363.000
45.92000 384.000
45.94000 385.000
45.96000 402.000
45.98000 393.000
46.00000 398.000
46.02000 447.000
46.04000 425.000
46.06000 435.000
46.08000 432.000
46.10000 423.000
46.12000 419.000
46.14000 424.000
46.16000 437.000
46.18000 375.000
46.20000 401.000
46.22000 383.000
46.24000 389.000
46.26000 333.000
46.28000 359.000
46.30000 392.000
46.32000 395.000
46.34000 366.000
46.36000 339.000
46.38000 333.000
46.40000 335.000
46.42000 351.000
46.44000 370.000
46.46000 329.000
46.48000 389.000
46.50000 378.000
46.52000 361.000
46.54000 338.000
46.56000 357.000
46.58000 320.000
46.60000 378.000
46.62000 348.000
46.64000 338.000
46.66000 345.000
46.68000 342.000
46.70000 359.000
46.72000 347.000
46.74000 356.000
46.76000 356.000
46.78000 321.000
46.80000 366.000
46.82000 354.000
46.84000 386.000
46.86000 344.000
46.88000 343.000
46.90000 350.000
46.92000 382.000
46.94000 386.000
46.96000 373.000
46.98000 361.000
47.00000 404.000
47.02000 362.000
47.04000 373.000
47.06000 400.000
47.08000 374.000
47.10000 362.000
47.12000 359.000
47.14000 415.000
47.16000 361.000
47.18000 361.000
47.20000 338.000
47.22000 349.000
47.24000 326.000
47.26000 362.000
47.28000 354.000
47.30000 335.000
47.32000 370.000
47.34000 357.000
47.36000 341.000
47.38000 363.000
47.40000 337.000
47.42000 333.000
47.44000 331.000
47.46000 375.000
47.48000 395.000
47.50000 320.000
47.52000 336.000
47.54000 329.000
47.56000 354.000
47.58000 327.000
47.60000 335.000
47.62000 366.000
47.64000 355.000
47.66000 379.000
47.68000 337.000
47.70000 305.000
47.72000 355.000
47.74000 334.000
47.76000 375.000
47.78000 347.000
47.80000 337.000
47.82000 364.000
47.84000 328.000
47.86000 340.000
47.88000 337.000
47.90000 331.000
47.92000 368.000
47.94000 341.000
47.96000 320.000
47.98000 326.000
48.00000 322.000
48.02000 385.000
48.04000 312.000
48.06000 322.000
48.08000 319.000
48.10000 329.000
48.12000 317.000
48.14000 362.000
48.16000 343.000
48.18000 330.000
48.20000 378.000
48.22000 362.000
48.24000 346.000
48.26000 315.000
48.28000 317.000
48.30000 321.000
48.32000 378.000
48.34000 334.000
48.36000 344.000
48.38000 350.000
48.40000 338.000
48.42000 323.000
48.44000 368.000
48.46000 336.000
48.48000 325.000
48.50000 384.000
48.52000 309.000
48.54000 364.000
48.56000 325.000
48.58000 364.000
48.60000 370.000
48.62000 335.000
48.64000 371.000
48.66000 328.000
48.68000 351.000
48.70000 370.000
48.72000 315.000
48.74000 347.000
48.76000 361.000
48.78000 365.000
48.80000 366.000
48.82000 371.000
48.84000 410.000
48.86000 374.000
48.88000 357.000
48.90000 381.000
48.92000 345.000
48.94000 360.000
48.96000 356.000
48.98000 376.000
49.00000 355.000
49.02000 416.000
49.04000 444.000
49.06000 438.000
49.08000 437.000
49.10000 452.000
49.12000 476.000
49.14000 563.000
49.16000 550.000
49.18000 593.000
49.20000 545.000
49.22000 604.000
49.24000 560.000
49.26000 579.000
49.28000 536.000
49.30000 606.000
49.32000 525.000
49.34000 537.000
49.36000 536.000
49.38000 510.000
49.40000 459.000
49.42000 469.000
49.44000 495.000
49.46000 401.000
49.48000 463.000
49.50000 493.000
49.52000 459.000
49.54000 438.000
49.56000 443.000
49.58000 425.000
49.60000 463.000
49.62000 443.000
49.64000 443.000
49.66000 466.000
49.68000 416.000
49.70000 393.000
49.72000 416.000
49.74000 390.000
49.76000 364.000
49.78000 371.000
49.80000 358.000
49.82000 388.000
49.84000 372.000
49.86000 388.000
49.88000 387.000
49.90000 375.000
49.92000 360.000
49.94000 326.000
49.96000 347.000
49.98000 314.000
50.00000 348.000
50.02000 376.000
50.04000 323.000
50.06000 337.000
50.08000 363.000
50.10000 307.000
50.12000 338.000
50.14000 359.000
50.16000 335.000
50.18000 340.000
50.20000 337.000
50.22000 317.000
50.24000 365.000
50.26000 325.000
50.28000 354.000
50.30000 334.000
50.32000 360.000
50.34000 331.000
50.36000 380.000
50.38000 412.000
50.40000 329.000
50.42000 369.000
50.44000 364.000
50.46000 386.000
50.48000 385.000
50.50000 383.000
50.52000 353.000
50.54000 399.000
50.56000 396.000
50.58000 354.000
50.60000 350.000
50.62000 368.000
50.64000 368.000
50.66000 379.000
50.68000 399.000
50.70000 385.000
50.72000 370.000
50.74000 351.000
50.76000 358.000
50.78000 356.000
50.80000 368.000
50.82000 377.000
50.84000 383.000
50.86000 340.000
50.88000 371.000
50.90000 327.000
50.92000 328.000
50.94000 322.000
50.96000 309.000
50.98000 344.000
51.00000 314.000
51.02000 322.000
51.04000 355.000
51.06000 317.000
51.08000 347.000
51.10000 291.000
51.12000 312.000
51.14000 334.000
51.16000 302.000
51.18000 315.000
51.20000 329.000
51.22000 288.000
51.24000 296.000
51.26000 330.000
51.28000 323.000
51.30000 323.000
51.32000 310.000
51.34000 328.000
51.36000 361.000
51.38000 282.000
51.40000 303.000
51.42000 292.000
51.44000 322.000
51.46000 301.000
51.48000 323.000
51.50000 305.000
51.52000 294.000
51.54000 292.000
51.56000 311.000
51.58000 282.000
51.60000 313.000
51.62000 304.000
51.64000 312.000
51.66000 305.000
51.68000 321.000
51.70000 278.000
51.72000 313.000
51.74000 312.000
51.76000 257.000
51.78000 309.000
51.80000 326.000
51.82000 313.000
51.84000 291.000
51.86000 315.000
51.88000 301.000
51.90000 291.000
51.92000 300.000
51.94000 286.000
51.96000 284.000
51.98000 284.000
52.00000 296.000
52.02000 271.000
52.04000 313.000
52.06000 306.000
52.08000 279.000
52.10000 296.000
52.12000 276.000
52.14000 326.000
52.16000 289.000
52.18000 294.000
52.20000 295.000
52.22000 306.000
52.24000 280.000
52.26000 295.000
52.28000 285.000
52.30000 279.000
52.32000 313.000
52.34000 284.000
52.36000 344.000
52.38000 316.000
52.40000 317.000
52.42000 298.000
52.44000 293.000
52.46000 299.000
52.48000 294.000
52.50000 270.000
52.52000 310.000
52.54000 340.000
52.56000 290.000
52.58000 295.000
52.60000 315.000
52.62000 279.000
52.64000 306.000
52.66000 307.000
52.68000 300.000
52.70000 291.000
52.72000 310.000
52.74000 316.000
52.76000 276.000
52.78000 298.000
52.80000 341.000
52.82000 283.000
52.84000 284.000
52.86000 337.000
52.88000 302.000
52.90000 306.000
52.92000 302.000
52.94000 300.000
52.96000 296.000
52.98000 313.000
53.00000 300.000
53.02000 276.000
53.04000 305.000
53.06000 248.000
53.08000 288.000
53.10000 295.000
53.12000 280.000
53.14000 297.000
53.16000 282.000
53.18000 266.000
53.20000 290.000
53.22000 285.000
53.24000 327.000
53.26000 295.000
53.28000 276.000
53.30000 250.000
53.32000 309.000
53.34000 297.000
53.36000 269.000
53.38000 309.000
53.40000 302.000
53.42000 300.000
53.44000 303.000
53.46000 285.000
53.48000 310.000
53.50000 291.000
53.52000 270.000
53.54000 308.000
53.56000 327.000
53.58000 337.000
53.60000 304.000
53.62000 328.000
53.64000 289.000
53.66000 268.000
53.68000 328.000
53.70000 284.000
53.72000 293.000
53.74000 304.000
53.76000 312.000
53.78000 309.000
53.80000 258.000
53.82000 292.000
53.84000 276.000
53.86000 282.000
53.88000 280.000
53.90000 280.000
53.92000 277.000
53.94000 261.000
53.96000 288.000
53.98000 236.000
54.00000 255.000
54.02000 257.000
54.04000 282.000
54.06000 275.000
54.08000 258.000
54.10000 235.000
54.12000 265.000
54.14000 306.000
54.16000 263.000
54.18000 264.000
54.20000 240.000
54.22000 251.000
54.24000 256.000
54.26000 261.000
54.28000 253.000
54.30000 284.000
54.32000 269.000
54.34000 256.000
54.36000 246.000
54.38000 276.000
54.40000 246.000
54.42000 271.000
54.44000 272.000
54.46000 252.000
54.48000 261.000
54.50000 213.000
54.52000 278.000
54.54000 243.000
54.56000 246.000
54.58000 259.000
54.60000 253.000
54.62000 238.000
54.64000 236.000
54.66000 267.000
54.68000 276.000
54.70000 257.000
54.72000 256.000
54.74000 252.000
54.76000 270.000
54.78000 272.000
54.80000 237.000
54.82000 258.000
54.84000 249.000
54.86000 244.000
54.88000 292.000
54.90000 238.000
54.92000 279.000
54.94000 274.000
54.96000 230.000
54.98000 249.000
55.00000 257.000
55.02000 274.000
55.04000 254.000
55.06000 261.000
55.08000 236.000
55.10000 273.000
55.12000 250.000
55.14000 289.000
55.16000 246.000
55.18000 247.000
55.20000 264.000
55.22000 248.000
55.24000 270.000
55.26000 251.000
55.28000 259.000
55.30000 257.000
55.32000 228.000
55.34000 262.000
55.36000 279.000
55.38000 236.000
55.40000 250.000
55.42000 246.000
55.44000 275.000
55.46000 244.000
55.48000 252.000
55.50000 249.000
55.52000 249.000
55.54000 236.000
55.56000 242.000
55.58000 232.000
55.60000 261.000
55.62000 283.000
55.64000 256.000
55.66000 263.000
55.68000 234.000
55.70000 274.000
55.72000 254.000
55.74000 246.000
55.76000 249.000
55.78000 258.000
55.80000 264.000
55.82000 262.000
55.84000 243.000
55.86000 212.000
55.88000 240.000
55.90000 237.000
55.92000 275.000
55.94000 232.000
55.96000 256.000
55.98000 227.000
56.00000 224.000
56.02000 260.000
56.04000 243.000
56.06000 261.000
56.08000 229.000
56.10000 252.000
56.12000 208.000
56.14000 246.000
56.16000 263.000
56.18000 223.000
56.20000 245.000
56.22000 240.000
56.24000 263.000
56.26000 236.000
56.28000 240.000
56.30000 289.000
56.32000 235.000
56.34000 249.000
56.36000 267.000
56.38000 232.000
56.40000 228.000
56.42000 208.000
56.44000 270.000
56.46000 222.000
56.48000 228.000
56.50000 217.000
56.52000 242.000
56.54000 244.000
56.56000 253.000
56.58000 250.000
56.60000 249.000
56.62000 245.000
56.64000 259.000
56.66000 247.000
56.68000 216.000
56.70000 213.000
56.72000 220.000
56.74000 252.000
56.76000 218.000
56.78000 256.000
56.80000 254.000
56.82000 245.000
56.84000 230.000
56.86000 264.000
56.88000 245.000
56.90000 260.000
56.92000 229.000
56.94000 241.000
56.96000 194.000
56.98000 221.000
57.00000 223.000
57.02000 229.000
57.04000 258.000
57.06000 231.000
57.08000 251.000
57.10000 262.000
57.12000 261.000
57.14000 240.000
57.16000 238.000
57.18000 275.000
57.20000 266.000
57.22000 263.000
57.24000 252.000
57.26000 274.000
57.28000 300.000
57.30000 270.000
57.32000 267.000
57.34000 322.000
57.36000 291.000
57.38000 309.000
57.40000 317.000
57.42000 359.000
57.44000 326.000
57.46000 353.000
57.48000 341.000
57.50000 344.000
57.52000 396.000
57.54000 398.000
57.56000 354.000
57.58000 350.000
57.60000 399.000
57.62000 339.000
57.64000 326.000
57.66000 373.000
57.68000 363.000
57.70000 363.000
57.72000 326.000
57.74000 330.000
57.76000 285.000
57.78000 315.000
57.80000 287.000
57.82000 301.000
57.84000 288.000
57.86000 306.000
57.88000 311.000
57.90000 269.000
57.92000 264.000
57.94000 256.000
57.96000 256.000
57.98000 264.000
58.00000 263.000
58.02000 268.000
58.04000 249.000
58.06000 249.000
58.08000 246.000
58.10000 246.000
58.12000 255.000
58.14000 246.000
58.16000 239.000
58.18000 247.000
58.20000 233.000
58.22000 231.000
58.24000 251.000
58.26000 219.000
58.28000 250.000
58.30000 224.000
58.32000 250.000
58.34000 229.000
58.36000 228.000
58.38000 261.000
58.40000 258.000
58.42000 237.000
58.44000 244.000
58.46000 222.000
58.48000 242.000
58.50000 236.000
58.52000 268.000
58.54000 226.000
58.56000 302.000
58.58000 251.000
58.60000 261.000
58.62000 263.000
58.64000 239.000
58.66000 261.000
58.68000 264.000
58.70000 249.000
58.72000 264.000
58.74000 275.000
58.76000 313.000
58.78000 310.000
58.80000 299.000
58.82000 346.000
58.84000 349.000
58.86000 332.000
58.88000 355.000
58.90000 324.000
58.92000 288.000
58.94000 307.000
58.96000 309.000
58.98000 281.000
59.00000 292.000
59.02000 271.000
59.04000 272.000
59.06000 236.000
59.08000 242.000
59.10000 246.000
59.12000 247.000
59.14000 245.000
59.16000 176.000
59.18000 203.000
59.20000 227.000
59.22000 221.000
59.24000 199.000
59.26000 240.000
59.28000 188.000
59.30000 199.000
59.32000 245.000
59.34000 227.000
59.36000 224.000
59.38000 261.000
59.40000 238.000
59.42000 216.000
59.44000 236.000
59.46000 223.000
59.48000 251.000
59.50000 226.000
59.52000 218.000
59.54000 248.000
59.56000 209.000
59.58000 241.000
59.60000 232.000
59.62000 225.000
59.64000 228.000
59.66000 238.000
59.68000 221.000
59.70000 233.000
59.72000 201.000
59.74000 224.000
59.76000 240.000
59.78000 199.000
59.80000 180.000
59.82000 208.000
59.84000 229.000
59.86000 210.000
59.88000 199.000
59.90000 223.000
59.92000 221.000
59.94000 215.000
59.96000 206.000
59.98000 215.000
60.00000 209.000
60.02000 211.000
60.04000 213.000
60.06000 201.000
60.08000 197.000
60.10000 197.000
60.12000 228.000
60.14000 215.000
60.16000 235.000
60.18000 230.000
60.20000 178.000
60.22000 188.000
60.24000 201.000
60.26000 233.000
60.28000 224.000
60.30000 214.000
60.32000 208.000
60.34000 222.000
60.36000 233.000
60.38000 210.000
60.40000 194.000
60.42000 214.000
60.44000 212.000
60.46000 205.000
60.48000 230.000
60.50000 186.000
60.52000 201.000
60.54000 198.000
60.56000 200.000
60.58000 194.000
60.60000 215.000
60.62000 216.000
60.64000 195.000
60.66000 199.000
60.68000 194.000
60.70000 207.000
60.72000 198.000
60.74000 184.000
60.76000 183.000
60.78000 207.000
60.80000 215.000
60.82000 184.000
60.84000 178.000
60.86000 201.000
60.88000 194.000
60.90000 184.000
60.92000 188.000
60.94000 222.000
60.96000 197.000
60.98000 208.000
61.00000 193.000
61.02000 189.000
61.04000 185.000
61.06000 190.000
61.08000 180.000
61.10000 165.000
61.12000 196.000
61.14000 206.000
61.16000 223.000
61.18000 169.000
61.20000 184.000
61.22000 179.000
61.24000 199.000
61.26000 206.000
61.28000 198.000
61.30000 181.000
61.32000 197.000
61.34000 177.000
61.36000 198.000
61.38000 210.000
61.40000 206.000
61.42000 206.000
61.44000 193.000
61.46000 198.000
61.48000 205.000
61.50000 166.000
61.52000 196.000
61.54000 219.000
61.56000 213.000
61.58000 205.000
61.60000 221.000
61.62000 218.000
61.64000 217.000
61.66000 208.000
61.68000 196.000
61.70000 235.000
61.72000 199.000
61.74000 228.000
61.76000 221.000
61.78000 179.000
61.80000 185.000
61.82000 224.000
61.84000 201.000
61.86000 210.000
61.88000 209.000
61.90000 199.000
61.92000 195.000
61.94000 182.000
61.96000 206.000
61.98000 204.000
62.00000 208.000
62.02000 191.000
62.04000 187.000
62.06000 183.000
62.08000 188.000
62.10000 195.000
62.12000 180.000
62.14000 188.000
62.16000 196.000
62.18000 182.000
62.20000 206.000
62.22000 183.000
62.24000 174.000
62.26000 186.000
62.28000 203.000
62.30000 234.000
62.32000 168.000
62.34000 186.000
62.36000 172.000
62.38000 187.000
62.40000 192.000
62.42000 189.000
62.44000 186.000
62.46000 188.000
62.48000 215.000
62.50000 171.000
62.52000 198.000
62.54000 202.000
62.56000 187.000
62.58000 204.000
62.60000 179.000
62.62000 181.000
62.64000 201.000
62.66000 179.000
62.68000 199.000
62.70000 188.000
62.72000 161.000
62.74000 193.000
62.76000 184.000
62.78000 164.000
62.80000 175.000
62.82000 176.000
62.84000 193.000
62.86000 171.000
62.88000 192.000
62.90000 160.000
62.92000 194.000
62.94000 175.000
62.96000 196.000
62.98000 178.000
63.00000 146.000
63.02000 193.000
63.04000 195.000
63.06000 165.000
63.08000 153.000
63.10000 188.000
63.12000 210.000
63.14000 157.000
63.16000 188.000
63.18000 182.000
63.20000 168.000
63.22000 187.000
63.24000 175.000
63.26000 196.000
63.28000 178.000
63.30000 185.000
63.32000 156.000
63.34000 165.000
63.36000 194.000
63.38000 195.000
63.40000 176.000
63.42000 184.000
63.44000 170.000
63.46000 162.000
63.48000 183.000
63.50000 185.000
63.52000 189.000
63.54000 170.000
63.56000 182.000
63.58000 186.000
63.60000 195.000
63.62000 159.000
63.64000 176.000
63.66000 176.000
63.68000 181.000
63.70000 178.000
63.72000 183.000
63.74000 188.000
63.76000 177.000
63.78000 190.000
63.80000 172.000
63.82000 183.000
63.84000 186.000
63.86000 183.000
63.88000 181.000
63.90000 208.000
63.92000 198.000
63.94000 139.000
63.96000 187.000
63.98000 185.000
64.00000 182.000
64.02000 202.000
64.04000 149.000
64.06000 174.000
64.08000 163.000
64.10000 175.000
64.12000 194.000
64.14000 166.000
64.16000 185.000
64.18000 181.000
64.20000 185.000
64.22000 169.000
64.24000 174.000
64.26000 175.000
64.28000 191.000
64.30000 158.000
64.32000 171.000
64.34000 175.000
64.36000 194.000
64.38000 171.000
64.40000 170.000
64.42000 200.000
64.44000 170.000
64.46000 176.000
64.48000 174.000
64.50000 183.000
64.52000 189.000
64.54000 200.000
64.56000 206.000
64.58000 188.000
64.60000 225.000
64.62000 240.000
64.64000 207.000
64.66000 201.000
64.68000 204.000
64.70000 181.000
64.72000 205.000
64.74000 211.000
64.76000 167.000
64.78000 201.000
64.80000 208.000
64.82000 191.000
64.84000 198.000
64.86000 186.000
64.88000 177.000
64.90000 183.000
64.92000 167.000
64.94000 188.000
64.96000 184.000
64.98000 176.000
65.00000 182.000
65.02000 192.000
65.04000 157.000
65.06000 203.000
65.08000 188.000
65.10000 169.000
65.12000 152.000
65.14000 180.000
65.16000 182.000
65.18000 178.000
65.20000 176.000
65.22000 206.000
65.24000 174.000
65.26000 177.000
65.28000 188.000
65.30000 176.000
65.32000 166.000
65.34000 166.000
65.36000 167.000
65.38000 172.000
65.40000 156.000
65.42000 178.000
65.44000 161.000
65.46000 154.000
65.48000 172.000
65.50000 168.000
65.52000 151.000
65.54000 164.000
65.56000 163.000
65.58000 167.000
65.60000 154.000
65.62000 161.000
65.64000 162.000
65.66000 161.000
65.68000 155.000
65.70000 192.000
65.72000 155.000
65.74000 155.000
65.76000 151.000
65.78000 178.000
65.80000 155.000
65.82000 152.000
65.84000 170.000
65.86000 162.000
65.88000 188.000
65.90000 189.000
65.92000 152.000
65.94000 163.000
65.96000 163.000
65.98000 179.000
66.00000 169.000
66.02000 163.000
66.04000 155.000
66.06000 174.000
66.08000 141.000
66.10000 170.000
66.12000 171.000
66.14000 167.000
66.16000 178.000
66.18000 158.000
66.20000 158.000
66.22000 181.000
66.24000 156.000
66.26000 150.000
66.28000 184.000
66.30000 170.000
66.32000 167.000
66.34000 168.000
66.36000 185.000
66.38000 140.000
66.40000 164.000
66.42000 164.000
66.44000 172.000
66.46000 136.000
66.48000 155.000
66.50000 174.000
66.52000 149.000
66.54000 175.000
66.56000 149.000
66.58000 165.000
66.60000 139.000
66.62000 164.000
66.64000 163.000
66.66000 132.000
66.68000 159.000
66.70000 174.000
66.72000 156.000
66.74000 181.000
66.76000 166.000
66.78000 146.000
66.80000 152.000
66.82000 155.000
66.84000 170.000
66.86000 176.000
66.88000 165.000
66.90000 161.000
66.92000 146.000
66.94000 177.000
66.96000 148.000
66.98000 159.000
67.00000 142.000
67.02000 141.000
67.04000 171.000
67.06000 159.000
67.08000 154.000
67.10000 138.000
67.12000 167.000
67.14000 166.000
67.16000 171.000
67.18000 160.000
67.20000 167.000
67.22000 157.000
67.24000 159.000
67.26000 152.000
67.28000 157.000
67.30000 162.000
67.32000 176.000
67.34000 182.000
67.36000 163.000
67.38000 175.000
67.40000 163.000
67.42000 153.000
67.44000 140.000
67.46000 173.000
67.48000 165.000
67.50000 145.000
67.52000 175.000
67.54000 188.000
67.56000 166.000
67.58000 173.000
67.60000 180.000
67.62000 163.000
67.64000 171.000
67.66000 176.000
67.68000 194.000
67.70000 178.000
67.72000 183.000
67.74000 189.000
67.76000 186.000
67.78000 197.000
67.80000 190.000
67.82000 162.000
67.84000 204.000
67.86000 180.000
67.88000 199.000
67.90000 176.000
67.92000 187.000
67.94000 184.000
67.96000 217.000
67.98000 177.000
68.00000 193.000
68.02000 181.000
68.04000 181.000
68.06000 179.000
68.08000 192.000
68.10000 194.000
68.12000 169.000
68.14000 180.000
68.16000 177.000
68.18000 166.000
68.20000 142.000
68.22000 161.000
68.24000 141.000
68.26000 158.000
68.28000 134.000
68.30000 155.000
68.32000 135.000
68.34000 158.000
68.36000 166.000
68.38000 145.000
68.40000 143.000
68.42000 148.000
68.44000 146.000
68.46000 161.000
68.48000 159.000
68.50000 184.000
68.52000 170.000
68.54000 156.000
68.56000 149.000
68.58000 168.000
68.60000 141.000
68.62000 147.000
68.64000 150.000
68.66000 149.000
68.68000 150.000
68.70000 140.000
68.72000 157.000
68.74000 173.000
68.76000 166.000
68.78000 161.000
68.80000 155.000
68.82000 164.000
68.84000 146.000
68.86000 155.000
68.88000 159.000
68.90000 176.000
68.92000 145.000
68.94000 150.000
68.96000 149.000
68.98000 135.000
69.00000 129.000
69.02000 143.000
69.04000 155.000
69.06000 143.000
69.08000 140.000
69.10000 145.000
69.12000 140.000
69.14000 138.000
69.16000 160.000
69.18000 161.000
69.20000 117.000
69.22000 139.000
69.24000 133.000
69.26000 128.000
69.28000 146.000
69.30000 159.000
69.32000 154.000
69.34000 176.000
69.36000 135.000
69.38000 146.000
69.40000 167.000
69.42000 137.000
69.44000 127.000
69.46000 143.000
69.48000 153.000
69.50000 163.000
69.52000 136.000
69.54000 149.000
69.56000 171.000
69.58000 148.000
69.60000 149.000
69.62000 157.000
69.64000 139.000
69.66000 150.000
69.68000 157.000
69.70000 145.000
69.72000 158.000
69.74000 141.000
69.76000 127.000
69.78000 128.000
69.80000 154.000
69.82000 146.000
69.84000 162.000
69.86000 155.000
69.88000 133.000
69.90000 141.000
69.92000 159.000
69.94000 159.000
69.96000 153.000
69.98000 148.000
70.00000 158.000
70.02000 155.000
70.04000 148.000
70.06000 123.000
70.08000 117.000
70.10000 134.000
70.12000 149.000
70.14000 155.000
70.16000 137.000
70.18000 142.000
70.20000 128.000
70.22000 131.000
70.24000 167.000
70.26000 144.000
70.28000 171.000
70.30000 150.000
70.32000 151.000
70.34000 165.000
70.36000 154.000
70.38000 138.000
70.40000 147.000
70.42000 145.000
70.44000 143.000
70.46000 151.000
70.48000 130.000
70.50000 151.000
70.52000 154.000
70.54000 144.000
70.56000 133.000
70.58000 146.000
70.60000 147.000
70.62000 163.000
70.64000 186.000
70.66000 191.000
70.68000 157.000
70.70000 219.000
70.72000 167.000
70.74000 172.000
70.76000 212.000
70.78000 191.000
70.80000 237.000
70.82000 213.000
70.84000 220.000
70.86000 225.000
70.88000 221.000
70.90000 189.000
70.92000 201.000
70.94000 184.000
70.96000 208.000
70.98000 177.000
71.00000 190.000
71.02000 182.000
71.04000 193.000
71.06000 171.000
71.08000 161.000
71.10000 172.000
71.12000 180.000
71.14000 142.000
71.16000 133.000
71.18000 164.000
71.20000 142.000
71.22000 173.000
71.24000 137.000
71.26000 128.000
71.28000 132.000
71.30000 130.000
71.32000 145.000
71.34000 113.000
71.36000 150.000
71.38000 144.000
71.40000 157.000
71.42000 148.000
71.44000 159.000
71.46000 152.000
71.48000 145.000
71.50000 158.000
71.52000 144.000
71.54000 159.000
71.56000 144.000
71.58000 154.000
71.60000 133.000
71.62000 144.000
71.64000 126.000
71.66000 138.000
71.68000 145.000
71.70000 147.000
71.72000 153.000
71.74000 158.000
71.76000 154.000
71.78000 119.000
71.80000 125.000
71.82000 170.000
71.84000 134.000
71.86000 140.000
71.88000 153.000
71.90000 153.000
71.92000 134.000
71.94000 146.000
71.96000 144.000
71.98000 118.000
72.00000 145.000
72.02000 157.000
72.04000 131.000
72.06000 148.000
72.08000 127.000
72.10000 145.000
72.12000 134.000
72.14000 137.000
72.16000 156.000
72.18000 137.000
72.20000 145.000
72.22000 144.000
72.24000 140.000
72.26000 153.000
72.28000 136.000
72.30000 138.000
72.32000 162.000
72.34000 136.000
72.36000 127.000
72.38000 151.000
72.40000 164.000
72.42000 135.000
72.44000 142.000
72.46000 140.000
72.48000 133.000
72.50000 167.000
72.52000 131.000
72.54000 147.000
72.56000 123.000
72.58000 141.000
72.60000 133.000
72.62000 136.000
72.64000 157.000
72.66000 139.000
72.68000 122.000
72.70000 140.000
72.72000 140.000
72.74000 135.000
72.76000 132.000
72.78000 133.000
72.80000 145.000
72.82000 144.000
72.84000 149.000
72.86000 137.000
72.88000 130.000
72.90000 132.000
72.92000 137.000
72.94000 144.000
72.96000 133.000
72.98000 141.000
73.00000 160.000
73.02000 119.000
73.04000 160.000
73.06000 154.000
73.08000 164.000
73.10000 144.000
73.12000 141.000
73.14000 149.000
73.16000 160.000
73.18000 150.000
73.20000 160.000
73.22000 155.000
73.24000 145.000
73.26000 138.000
73.28000 147.000
73.30000 136.000
73.32000 150.000
73.34000 150.000
73.36000 155.000
73.38000 166.000
73.40000 152.000
73.42000 143.000
73.44000 144.000
73.46000 163.000
73.48000 148.000
73.50000 156.000
73.52000 176.000
73.54000 148.000
73.56000 155.000
73.58000 138.000
73.60000 151.000
73.62000 133.000
73.64000 134.000
73.66000 132.000
73.68000 137.000
73.70000 159.000
73.72000 129.000
73.74000 131.000
73.76000 147.000
73.78000 145.000
73.80000 131.000
73.82000 137.000
73.84000 150.000
73.86000 112.000
73.88000 152.000
73.90000 132.000
73.92000 145.000
73.94000 129.000
73.96000 138.000
73.98000 117.000
74.00000 138.000
74.02000 118.000
74.04000 134.000
74.06000 136.000
74.08000 128.000
74.10000 140.000
74.12000 121.000
74.14000 159.000
74.16000 157.000
74.18000 135.000
74.20000 136.000
74.22000 156.000
74.24000 136.000
74.26000 147.000
74.28000 137.000
74.30000 113.000
74.32000 118.000
74.34000 128.000
74.36000 127.000
74.38000 156.000
74.40000 130.000
74.42000 125.000
74.44000 144.000
74.46000 141.000
74.48000 140.000
74.50000 146.000
74.52000 124.000
74.54000 129.000
74.56000 151.000
74.58000 134.000
74.60000 146.000
74.62000 124.000
74.64000 125.000
74.66000 129.000
74.68000 158.000
74.70000 132.000
74.72000 139.000
74.74000 129.000
74.76000 143.000
74.78000 137.000
74.80000 142.000
74.82000 119.000
74.84000 132.000
74.86000 109.000
74.88000 133.000
74.90000 134.000
74.92000 120.000
74.94000 110.000
74.96000 116.000
74.98000 107.000
75.00000 140.000
