2 2230
2.02 2012
2.04 1950
2.06 1828
2.08 1715
2.1 1603
2.12 1538
2.14 1528
2.16 1394
2.18 1348
2.2 1297
2.22 1289
2.24 1325
2.26 1281
2.28 1310
2.3 1317
2.32 1296
2.34 1266
2.36 1188
2.38 1190
2.4 1161
2.42 1144
2.44 1151
2.46 1134
2.48 1118
2.5 1120
2.52 1101
2.54 1042
2.56 1070
2.58 1017
2.6 1027
2.62 1064
2.64 1034
2.66 1041
2.68 1052
2.7 973
2.72 995
2.74 1046
2.76 1005
2.78 958
2.8 991
2.82 911
2.84 941
2.86 891
2.88 863
2.9 949
2.92 860
2.94 904
2.96 853
2.98 913
3 831
3.02 873
3.04 879
3.06 819
3.08 816
3.1 846
3.12 870
3.14 763
3.16 813
3.18 791
3.2 818
3.22 838
3.24 798
3.26 779
3.28 815
3.3 782
3.32 731
3.34 770
3.36 759
3.38 758
3.4 727
3.42 757
3.44 715
3.46 736
3.48 695
3.5 674
3.52 723
3.54 698
3.56 732
3.58 694
3.6 680
3.62 697
3.64 724
3.66 680
3.68 632
3.7 711
3.72 627
3.74 675
3.76 684
3.78 625
3.8 650
3.82 658
3.84 643
3.86 677
3.88 613
3.9 661
3.92 602
3.94 643
3.96 624
3.98 606
4 635
4.02 613
4.04 627
4.06 626
4.08 622
4.1 575
4.12 592
4.14 564
4.16 619
4.18 604
4.2 601
4.22 596
4.24 594
4.26 576
4.28 549
4.3 540
4.32 617
4.34 567
4.36 547
4.38 553
4.4 568
4.42 575
4.44 568
4.46 561
4.48 507
4.5 542
4.52 551
4.54 541
4.56 566
4.58 523
4.6 524
4.62 543
4.64 484
4.66 517
4.68 542
4.7 535
4.72 519
4.74 522
4.76 512
4.78 539
4.8 530
4.82 484
4.84 476
4.86 470
4.88 497
4.9 497
4.92 475
4.94 497
4.96 487
4.98 501
5 497
5.02 489
5.04 471
5.06 522
5.08 497
5.1 470
5.12 533
5.14 446
5.16 442
5.18 451
5.2 516
5.22 429
5.24 512
5.26 446
5.28 498
5.3 445
5.32 463
5.34 433
5.36 416
5.38 424
5.4 423
5.42 412
5.44 475
5.46 433
5.48 478
5.5 429
5.52 462
5.54 435
5.56 439
5.58 470
5.6 442
5.62 438
5.64 439
5.66 420
5.68 446
5.7 416
5.72 451
5.74 450
5.76 428
5.78 444
5.8 372
5.82 431
5.84 431
5.86 416
5.88 446
5.9 376
5.92 458
5.94 399
5.96 433
5.98 398
6 410
6.02 461
6.04 393
6.06 418
6.08 413
6.1 378
6.12 438
6.14 413
6.16 400
6.18 420
6.2 407
6.22 392
6.24 386
6.26 385
6.28 396
6.3 392
6.32 392
6.34 358
6.36 406
6.38 388
6.4 368
6.42 361
6.44 380
6.46 393
6.48 389
6.5 387
6.52 365
6.54 384
6.56 330
6.58 384
6.6 346
6.62 353
6.64 365
6.66 338
6.68 369
6.7 348
6.72 375
6.74 361
6.76 375
6.78 382
6.8 355
6.82 336
6.84 378
6.86 389
6.88 387
6.9 355
6.92 362
6.94 342
6.96 350
6.98 357
7 329
7.02 369
7.04 326
7.06 367
7.08 390
7.1 332
7.12 337
7.14 348
7.16 349
7.18 350
7.2 325
7.22 357
7.24 322
7.26 352
7.28 338
7.3 366
7.32 319
7.34 339
7.36 333
7.38 334
7.4 332
7.42 355
7.44 343
7.46 297
7.48 332
7.5 351
7.52 365
7.54 333
7.56 347
7.58 353
7.6 334
7.62 298
7.64 348
7.66 347
7.68 340
7.7 314
7.72 306
7.74 338
7.76 311
7.78 332
7.8 341
7.82 286
7.84 303
7.86 313
7.88 301
7.9 322
7.92 325
7.94 336
7.96 308
7.98 338
8 321
8.02 293
8.04 328
8.06 321
8.08 280
8.1 273
8.12 322
8.14 304
8.16 313
8.18 334
8.2 306
8.22 322
8.24 355
8.26 340
8.28 312
8.3 303
8.32 275
8.34 326
8.36 303
8.38 311
8.4 296
8.42 339
8.44 306
8.46 301
8.48 301
8.5 290
8.52 307
8.54 302
8.56 287
8.58 293
8.6 317
8.62 326
8.64 284
8.66 298
8.68 321
8.7 296
8.72 271
8.74 259
8.76 289
8.78 313
8.8 284
8.82 266
8.84 284
8.86 276
8.88 288
8.9 294
8.92 319
8.94 276
8.96 284
8.98 304
9 310
9.02 295
9.04 308
9.06 295
9.08 282
9.1 285
9.12 309
9.14 266
9.16 298
9.18 310
9.2 298
9.22 292
9.24 314
9.26 283
9.28 296
9.3 299
9.32 275
9.34 297
9.36 298
9.38 295
9.4 269
9.42 300
9.44 335
9.46 297
9.48 287
9.5 283
9.52 304
9.54 292
9.56 254
9.58 286
9.6 268
9.62 290
9.64 276
9.66 257
9.68 278
9.7 278
9.72 341
9.74 267
9.76 287
9.78 294
9.8 287
9.82 252
9.84 272
9.86 302
9.88 273
9.9 249
9.92 283
9.94 275
9.96 250
9.98 296
10 259
10.02 277
10.04 268
10.06 284
10.08 230
10.1 251
10.12 262
10.14 283
10.16 317
10.18 287
10.2 286
10.22 277
10.24 298
10.26 269
10.28 260
10.3 255
10.32 292
10.34 285
10.36 259
10.38 286
10.4 298
10.42 286
10.44 272
10.46 283
10.48 272
10.5 276
10.52 252
10.54 253
10.56 257
10.58 250
10.6 263
10.62 279
10.64 247
10.66 283
10.68 278
10.7 277
10.72 296
10.74 275
10.76 290
10.78 264
10.8 267
10.82 271
10.84 270
10.86 263
10.88 257
10.9 266
10.92 275
10.94 262
10.96 279
10.98 276
11 262
11.02 261
11.04 246
11.06 246
11.08 283
11.1 250
11.12 266
11.14 251
11.16 241
11.18 294
11.2 275
11.22 270
11.24 260
11.26 253
11.28 273
11.3 256
11.32 245
11.34 262
11.36 248
11.38 227
11.4 241
11.42 254
11.44 259
11.46 239
11.48 287
11.5 289
11.52 234
11.54 263
11.56 276
11.58 259
11.6 257
11.62 265
11.64 283
11.66 278
11.68 251
11.7 269
11.72 245
11.74 247
11.76 225
11.78 223
11.8 268
11.82 241
11.84 260
11.86 246
11.88 252
11.9 267
11.92 241
11.94 264
11.96 267
11.98 242
12 265
12.02 264
12.04 256
12.06 255
12.08 289
12.1 264
12.12 271
12.14 240
12.16 236
12.18 244
12.2 289
12.22 239
12.24 250
12.26 258
12.28 270
12.3 252
12.32 265
12.34 263
12.36 257
12.38 272
12.4 258
12.42 248
12.44 244
12.46 239
12.48 246
12.5 247
12.52 257
12.54 274
12.56 241
12.58 258
12.6 245
12.62 280
12.64 263
12.66 251
12.68 244
12.7 229
12.72 238
12.74 264
12.76 257
12.78 240
12.8 242
12.82 266
12.84 240
12.86 249
12.88 246
12.9 266
12.92 229
12.94 262
12.96 272
12.98 244
13 252
13.02 242
13.04 241
13.06 256
13.08 269
13.1 252
13.12 275
13.14 282
13.16 265
13.18 259
13.2 276
13.22 258
13.24 258
13.26 240
13.28 250
13.3 277
13.32 273
13.34 255
13.36 259
13.38 272
13.4 264
13.42 261
13.44 231
13.46 244
13.48 243
13.5 255
13.52 275
13.54 248
13.56 255
13.58 253
13.6 248
13.62 269
13.64 237
13.66 260
13.68 285
13.7 259
13.72 256
13.74 275
13.76 278
13.78 249
13.8 277
13.82 236
13.84 249
13.86 252
13.88 266
13.9 260
13.92 249
13.94 245
13.96 237
13.98 273
14 246
14.02 259
14.04 259
14.06 252
14.08 258
14.1 226
14.12 278
14.14 242
14.16 309
14.18 279
14.2 283
14.22 244
14.24 244
14.26 246
14.28 228
14.3 258
14.32 294
14.34 261
14.36 284
14.38 276
14.4 240
14.42 259
14.44 261
14.46 245
14.48 282
14.5 263
14.52 258
14.54 241
14.56 264
14.58 279
14.6 257
14.62 260
14.64 276
14.66 262
14.68 280
14.7 242
14.72 240
14.74 237
14.76 263
14.78 282
14.8 261
14.82 269
14.84 262
14.86 249
14.88 262
14.9 267
14.92 264
14.94 261
14.96 252
14.98 258
15 277
15.02 274
15.04 268
15.06 219
15.08 246
15.1 249
15.12 289
15.14 261
15.16 270
15.18 275
15.2 239
15.22 274
15.24 248
15.26 300
15.28 251
15.3 265
15.32 287
15.34 282
15.36 245
15.38 269
15.4 283
15.42 299
15.44 299
15.46 308
15.48 276
15.5 286
15.52 325
15.54 293
15.56 264
15.58 292
15.6 288
15.62 281
15.64 300
15.66 275
15.68 314
15.7 304
15.72 322
15.74 327
15.76 334
15.78 332
15.8 355
15.82 320
15.84 348
15.86 330
15.88 336
15.9 282
15.92 329
15.94 313
15.96 273
15.98 358
16 362
16.02 380
16.04 405
16.06 352
16.08 348
16.1 369
16.12 342
16.14 326
16.16 302
16.18 286
16.2 321
16.22 319
16.24 307
16.26 316
16.28 292
16.3 316
16.32 283
16.34 286
16.36 299
16.38 278
16.4 289
16.42 302
16.44 295
16.46 289
16.48 263
16.5 280
16.52 286
16.54 295
16.56 251
16.58 259
16.6 287
16.62 261
16.64 276
16.66 254
16.68 298
16.7 266
16.72 302
16.74 274
16.76 261
16.78 293
16.8 260
16.82 282
16.84 299
16.86 277
16.88 279
16.9 305
16.92 277
16.94 267
16.96 262
16.98 305
17 315
17.02 271
17.04 277
17.06 306
17.08 274
17.1 265
17.12 251
17.14 297
17.16 286
17.18 267
17.2 300
17.22 249
17.24 279
17.26 317
17.28 305
17.3 348
17.32 304
17.34 287
17.36 347
17.38 342
17.4 350
17.42 368
17.44 394
17.46 386
17.48 333
17.5 381
17.52 380
17.54 351
17.56 354
17.58 332
17.6 294
17.62 286
17.64 321
17.66 310
17.68 296
17.7 285
17.72 312
17.74 316
17.76 279
17.78 293
17.8 289
17.82 276
17.84 305
17.86 319
17.88 278
17.9 292
17.92 297
17.94 293
17.96 284
17.98 298
18 309
18.02 299
18.04 291
18.06 300
18.08 325
18.1 284
18.12 269
18.14 314
18.16 297
18.18 298
18.2 290
18.22 290
18.24 308
18.26 299
18.28 324
18.3 329
18.32 340
18.34 325
18.36 320
18.38 315
18.4 329
18.42 308
18.44 289
18.46 289
18.48 316
18.5 290
18.52 301
18.54 299
18.56 287
18.58 323
18.6 297
18.62 303
18.64 298
18.66 305
18.68 315
18.7 307
18.72 320
18.74 310
18.76 326
18.78 310
18.8 317
18.82 326
18.84 302
18.86 329
18.88 321
18.9 325
18.92 289
18.94 305
18.96 326
18.98 288
19 314
19.02 331
19.04 315
19.06 332
19.08 315
19.1 300
19.12 346
19.14 321
19.16 335
19.18 322
19.2 283
19.22 318
19.24 308
19.26 332
19.28 327
19.3 299
19.32 352
19.34 322
19.36 317
19.38 302
19.4 307
19.42 286
19.44 331
19.46 306
19.48 330
19.5 361
19.52 321
19.54 293
19.56 320
19.58 316
19.6 282
19.62 300
19.64 328
19.66 353
19.68 315
19.7 350
19.72 308
19.74 333
19.76 324
19.78 314
19.8 324
19.82 308
19.84 310
19.86 308
19.88 335
19.9 338
19.92 353
19.94 319
19.96 360
19.98 335
20 320
20.02 323
20.04 315
20.06 348
20.08 341
20.1 350
20.12 331
20.14 336
20.16 351
20.18 342
20.2 341
20.22 348
20.24 341
20.26 330
20.28 337
20.3 316
20.32 323
20.34 316
20.36 346
20.38 314
20.4 348
20.42 339
20.44 375
20.46 362
20.48 352
20.5 360
20.52 350
20.54 334
20.56 342
20.58 309
20.6 389
20.62 344
20.64 347
20.66 318
20.68 347
20.7 328
20.72 343
20.74 345
20.76 324
20.78 360
20.8 358
20.82 364
20.84 347
20.86 383
20.88 344
20.9 358
20.92 349
20.94 367
20.96 386
20.98 345
21 341
21.02 347
21.04 332
21.06 352
21.08 353
21.1 345
21.12 348
21.14 354
21.16 318
21.18 355
21.2 347
21.22 386
21.24 349
21.26 400
21.28 391
21.3 368
21.32 410
21.34 356
21.36 379
21.38 365
21.4 372
21.42 361
21.44 347
21.46 347
21.48 371
21.5 357
21.52 371
21.54 362
21.56 396
21.58 367
21.6 341
21.62 397
21.64 391
21.66 356
21.68 377
21.7 398
21.72 414
21.74 406
21.76 370
21.78 406
21.8 380
21.82 377
21.84 364
21.86 390
21.88 384
21.9 380
21.92 385
21.94 383
21.96 374
21.98 373
22 380
22.02 392
22.04 374
22.06 373
22.08 365
22.1 372
22.12 399
22.14 362
22.16 377
22.18 392
22.2 378
22.22 373
22.24 362
22.26 400
22.28 370
22.3 412
22.32 377
22.34 363
22.36 397
22.38 371
22.4 373
22.42 337
22.44 370
22.46 384
22.48 402
22.5 379
22.52 409
22.54 375
22.56 379
22.58 338
22.6 344
22.62 353
22.64 344
22.66 376
22.68 390
22.7 406
22.72 384
22.74 379
22.76 431
22.78 420
22.8 406
22.82 386
22.84 403
22.86 416
22.88 423
22.9 412
22.92 403
22.94 417
22.96 401
22.98 394
23 389
23.02 408
23.04 369
23.06 406
23.08 398
23.1 430
23.12 414
23.14 395
23.16 411
23.18 417
23.2 391
23.22 381
23.24 393
23.26 388
23.28 361
23.3 382
23.32 389
23.34 410
23.36 372
23.38 386
23.4 405
23.42 388
23.44 416
23.46 369
23.48 377
23.5 384
23.52 407
23.54 385
23.56 380
23.58 383
23.6 408
23.62 395
23.64 393
23.66 381
23.68 383
23.7 393
23.72 367
23.74 382
23.76 430
23.78 369
23.8 401
23.82 408
23.84 381
23.86 429
23.88 414
23.9 438
23.92 385
23.94 449
23.96 454
23.98 426
24 494
24.02 500
24.04 583
24.06 625
24.08 732
24.1 823
24.12 951
24.14 1164
24.16 1386
24.18 1490
24.2 1757
24.22 1709
24.24 1729
24.26 1568
24.28 1408
24.3 1219
24.32 986
24.34 896
24.36 854
24.38 779
24.4 828
24.42 775
24.44 794
24.46 705
24.48 679
24.5 585
24.52 518
24.54 475
24.56 414
24.58 420
24.6 426
24.62 403
24.64 403
24.66 405
24.68 369
24.7 394
24.72 398
24.74 369
24.76 378
24.78 370
24.8 373
24.82 384
24.84 388
24.86 366
24.88 397
24.9 374
24.92 402
24.94 384
24.96 390
24.98 361
25 358
25.02 363
25.04 348
25.06 365
25.08 388
25.1 395
25.12 378
25.14 402
25.16 360
25.18 369
25.2 372
25.22 365
25.24 387
25.26 409
25.28 351
25.3 390
25.32 381
25.34 410
25.36 403
25.38 420
25.4 464
25.42 522
25.44 526
25.46 659
25.48 668
25.5 729
25.52 873
25.54 868
25.56 908
25.58 905
25.6 896
25.62 774
25.64 717
25.66 581
25.68 532
25.7 483
25.72 474
25.74 371
25.76 400
25.78 316
25.8 360
25.82 343
25.84 401
25.86 350
25.88 373
25.9 377
25.92 360
25.94 339
25.96 358
25.98 380
26 400
26.02 353
26.04 415
26.06 438
26.08 433
26.1 401
26.12 425
26.14 448
26.16 450
26.18 455
26.2 443
26.22 423
26.24 380
26.26 427
26.28 369
26.3 328
26.32 362
26.34 347
26.36 398
26.38 340
26.4 361
26.42 351
26.44 304
26.46 347
26.48 339
26.5 353
26.52 399
26.54 383
26.56 370
26.58 380
26.6 379
26.62 388
26.64 378
26.66 371
26.68 403
26.7 412
26.72 408
26.74 418
26.76 458
26.78 427
26.8 410
26.82 393
26.84 406
26.86 394
26.88 366
26.9 368
26.92 389
26.94 360
26.96 354
26.98 339
27 350
27.02 336
27.04 322
27.06 341
27.08 352
27.1 365
27.12 342
27.14 394
27.16 390
27.18 382
27.2 419
27.22 493
27.24 497
27.26 542
27.28 548
27.3 607
27.32 759
27.34 845
27.36 844
27.38 891
27.4 878
27.42 878
27.44 813
27.46 720
27.48 654
27.5 554
27.52 513
27.54 468
27.56 396
27.58 410
27.6 399
27.62 369
27.64 373
27.66 367
27.68 361
27.7 367
27.72 391
27.74 417
27.76 368
27.78 401
27.8 368
27.82 388
27.84 405
27.86 403
27.88 377
27.9 439
27.92 378
27.94 409
27.96 454
27.98 418
28 428
28.02 445
28.04 442
28.06 457
28.08 465
28.1 491
28.12 527
28.14 540
28.16 523
28.18 539
28.2 559
28.22 561
28.24 564
28.26 534
28.28 496
28.3 446
28.32 446
28.34 396
28.36 365
28.38 367
28.4 342
28.42 312
28.44 314
28.46 362
28.48 331
28.5 332
28.52 331
28.54 333
28.56 351
28.58 360
28.6 383
28.62 332
28.64 367
28.66 358
28.68 327
28.7 329
28.72 319
28.74 287
28.76 278
28.78 284
28.8 291
28.82 288
28.84 260
28.86 307
28.88 298
28.9 280
28.92 269
28.94 267
28.96 276
28.98 280
29 274
29.02 284
29.04 288
29.06 289
29.08 292
29.1 265
29.12 309
29.14 292
29.16 318
29.18 337
29.2 302
29.22 334
29.24 359
29.26 340
29.28 320
29.3 298
29.32 321
29.34 336
29.36 293
29.38 332
29.4 301
29.42 315
29.44 337
29.46 333
29.48 312
29.5 352
29.52 343
29.54 378
29.56 397
29.58 382
29.6 383
29.62 357
29.64 395
29.66 430
29.68 460
29.7 468
29.72 486
29.74 505
29.76 557
29.78 610
29.8 655
29.82 633
29.84 618
29.86 600
29.88 531
29.9 513
29.92 413
29.94 391
29.96 337
29.98 308
30 312
30.02 309
30.04 279
30.06 304
30.08 318
30.1 320
30.12 299
30.14 274
30.16 281
30.18 294
30.2 281
30.22 300
30.24 310
30.26 294
30.28 308
30.3 297
30.32 313
30.34 295
30.36 259
30.38 279
30.4 306
30.42 330
30.44 335
30.46 289
30.48 293
30.5 344
30.52 340
30.54 311
30.56 380
30.58 359
30.6 432
30.62 450
30.64 431
30.66 519
30.68 602
30.7 597
30.72 665
30.74 743
30.76 800
30.78 948
30.8 1140
30.82 1373
30.84 1708
30.86 2224
30.88 2817
30.9 3565
30.92 4468
30.94 5324
30.96 6089
30.98 6532
31 6486
31.02 5952
31.04 5081
31.06 4011
31.08 3029
31.1 2165
31.12 1592
31.14 1158
31.16 961
31.18 852
31.2 781
31.22 799
31.24 752
31.26 838
31.28 823
31.3 843
31.32 812
31.34 804
31.36 734
31.38 696
31.4 724
31.42 694
31.44 691
31.46 615
31.48 659
31.5 710
31.52 699
31.54 690
31.56 643
31.58 536
31.6 506
31.62 437
31.64 407
31.66 386
31.68 348
31.7 339
31.72 338
31.74 332
31.76 346
31.78 348
31.8 360
31.82 367
31.84 389
31.86 445
31.88 496
31.9 589
31.92 634
31.94 721
31.96 824
31.98 874
32 912
32.02 888
32.04 887
32.06 830
32.08 811
32.1 703
32.12 667
32.14 626
32.16 575
32.18 598
32.2 636
32.22 688
32.24 747
32.26 838
32.28 853
32.3 911
32.32 844
32.34 918
32.36 898
32.38 850
32.4 950
32.42 932
32.44 1000
32.46 999
32.48 1141
32.5 1125
32.52 1138
32.54 1043
32.56 1046
32.58 932
32.6 853
32.62 741
32.64 608
32.66 506
32.68 511
32.7 482
32.72 444
32.74 420
32.76 431
32.78 460
32.8 432
32.82 478
32.84 391
32.86 455
32.88 461
32.9 435
32.92 381
32.94 415
32.96 362
32.98 335
33 314
33.02 256
33.04 262
33.06 296
33.08 250
33.1 239
33.12 208
33.14 224
33.16 247
33.18 218
33.2 204
33.22 207
33.24 216
33.26 191
33.28 202
33.3 208
33.32 207
33.34 222
33.36 189
33.38 235
33.4 205
33.42 201
33.44 200
33.46 185
33.48 217
33.5 224
33.52 176
33.54 212
33.56 184
33.58 206
33.6 202
33.62 207
33.64 222
33.66 179
33.68 208
33.7 204
33.72 212
33.74 201
33.76 221
33.78 171
33.8 188
33.82 222
33.84 193
33.86 177
33.88 188
33.9 201
33.92 195
33.94 213
33.96 169
33.98 186
34 198
34.02 179
34.04 202
34.06 203
34.08 169
34.1 191
34.12 197
34.14 178
34.16 200
34.18 181
34.2 167
34.22 211
34.24 174
34.26 202
34.28 210
34.3 191
34.32 187
34.34 180
34.36 211
34.38 213
34.4 180
34.42 179
34.44 226
34.46 230
34.48 222
34.5 217
34.52 230
34.54 256
34.56 274
34.58 261
34.6 322
34.62 327
34.64 372
34.66 426
34.68 426
34.7 460
34.72 484
34.74 487
34.76 484
34.78 458
34.8 495
34.82 456
34.84 423
34.86 385
34.88 387
34.9 358
34.92 320
34.94 335
34.96 299
34.98 300
35 262
35.02 261
35.04 249
35.06 257
35.08 271
35.1 252
35.12 247
35.14 245
35.16 231
35.18 238
35.2 236
35.22 277
35.24 281
35.26 285
35.28 276
35.3 337
35.32 303
35.34 323
35.36 338
35.38 346
35.4 376
35.42 401
35.44 437
35.46 385
35.48 422
35.5 416
35.52 346
35.54 366
35.56 346
35.58 266
35.6 288
35.62 274
35.64 211
35.66 229
35.68 221
35.7 228
35.72 230
35.74 221
35.76 276
35.78 265
35.8 307
35.82 333
35.84 311
35.86 357
35.88 327
35.9 356
35.92 358
35.94 358
35.96 306
35.98 286
36 236
36.02 221
36.04 189
36.06 209
36.08 200
36.1 205
36.12 184
36.14 178
36.16 196
36.18 183
36.2 187
36.22 176
36.24 182
36.26 196
36.28 164
36.3 207
36.32 189
36.34 222
36.36 236
36.38 248
36.4 241
36.42 244
36.44 206
36.46 219
36.48 243
36.5 241
36.52 247
36.54 239
36.56 238
36.58 250
36.6 226
36.62 201
36.64 198
36.66 222
36.68 188
36.7 183
36.72 197
36.74 208
36.76 195
36.78 181
36.8 175
36.82 189
36.84 198
36.86 170
36.88 175
36.9 141
36.92 201
36.94 179
36.96 181
36.98 168
37 178
37.02 179
37.04 163
37.06 157
37.08 175
37.1 185
37.12 172
37.14 162
37.16 178
37.18 194
37.2 181
37.22 157
37.24 162
37.26 164
37.28 154
37.3 183
37.32 164
37.34 169
37.36 166
37.38 193
37.4 187
37.42 162
37.44 188
37.46 183
37.48 197
37.5 215
37.52 195
37.54 220
37.56 220
37.58 240
37.6 224
37.62 265
37.64 255
37.66 255
37.68 265
37.7 267
37.72 266
37.74 222
37.76 218
37.78 205
37.8 177
37.82 203
37.84 157
37.86 189
37.88 173
37.9 178
37.92 162
37.94 174
37.96 153
37.98 152
38 171
38.02 184
38.04 167
38.06 163
38.08 156
38.1 171
38.12 155
38.14 168
38.16 157
38.18 169
38.2 145
38.22 180
38.24 163
38.26 171
38.28 155
38.3 160
38.32 156
38.34 171
38.36 169
38.38 161
38.4 181
38.42 159
38.44 159
38.46 184
38.48 162
38.5 177
38.52 156
38.54 162
38.56 174
38.58 148
38.6 152
38.62 192
38.64 149
38.66 156
38.68 159
38.7 166
38.72 159
38.74 157
38.76 162
38.78 158
38.8 162
38.82 158
38.84 158
38.86 140
38.88 137
38.9 159
38.92 130
38.94 164
38.96 150
38.98 164
39 153
39.02 167
39.04 148
39.06 154
39.08 135
39.1 166
39.12 148
39.14 177
39.16 168
39.18 159
39.2 153
39.22 158
39.24 142
39.26 179
39.28 170
39.3 173
39.32 180
39.34 175
39.36 178
39.38 195
39.4 206
39.42 218
39.44 193
39.46 202
39.48 204
39.5 209
39.52 206
39.54 201
39.56 203
39.58 172
39.6 197
39.62 190
39.64 182
39.66 169
39.68 167
39.7 135
39.72 166
39.74 180
39.76 177
39.78 163
39.8 141
39.82 158
39.84 163
39.86 166
39.88 170
39.9 171
39.92 182
39.94 198
39.96 200
39.98 184
40 185
40.02 193
40.04 201
40.06 229
40.08 228
40.1 265
40.12 230
40.14 234
40.16 256
40.18 254
40.2 233
40.22 240
40.24 228
40.26 227
40.28 218
40.3 211
40.32 206
40.34 217
40.36 210
40.38 194
40.4 224
40.42 199
40.44 240
40.46 210
40.48 247
40.5 249
40.52 263
40.54 276
40.56 305
40.58 303
40.6 271
40.62 320
40.64 306
40.66 327
40.68 349
40.7 320
40.72 305
40.74 292
40.76 278
40.78 284
40.8 236
40.82 299
40.84 290
40.86 278
40.88 310
40.9 348
40.92 346
40.94 312
40.96 334
40.98 348
41 359
41.02 327
41.04 336
41.06 291
41.08 295
41.1 304
41.12 266
41.14 255
41.16 243
41.18 266
41.2 247
41.22 254
41.24 253
41.26 239
41.28 275
41.3 284
41.32 243
41.34 235
41.36 213
41.38 230
41.4 244
41.42 227
41.44 191
41.46 169
41.48 219
41.5 239
41.52 215
41.54 231
41.56 229
41.58 228
41.6 241
41.62 212
41.64 211
41.66 206
41.68 165
41.7 175
41.72 185
41.74 175
41.76 190
41.78 209
41.8 173
41.82 182
41.84 177
41.86 188
41.88 184
41.9 192
41.92 161
41.94 170
41.96 172
41.98 184
42 183
42.02 195
42.04 196
42.06 210
42.08 169
42.1 188
42.12 185
42.14 199
42.16 192
42.18 212
42.2 207
42.22 210
42.24 176
42.26 196
42.28 193
42.3 229
42.32 208
42.34 210
42.36 212
42.38 207
42.4 247
42.42 232
42.44 212
42.46 242
42.48 260
42.5 252
42.52 323
42.54 373
42.56 400
42.58 438
42.6 496
42.62 559
42.64 591
42.66 532
42.68 581
42.7 506
42.72 475
42.74 419
42.76 407
42.78 344
42.8 284
42.82 249
42.84 233
42.86 217
42.88 212
42.9 216
42.92 171
42.94 171
42.96 205
42.98 178
43 189
43.02 184
43.04 186
43.06 184
43.08 195
43.1 188
43.12 197
43.14 181
43.16 189
43.18 194
43.2 196
43.22 205
43.24 175
43.26 206
43.28 206
43.3 211
43.32 193
43.34 186
43.36 189
43.38 214
43.4 199
43.42 201
43.44 197
43.46 225
43.48 186
43.5 203
43.52 186
43.54 181
43.56 180
43.58 210
43.6 201
43.62 171
43.64 212
43.66 178
43.68 194
43.7 163
43.72 169
43.74 180
43.76 191
43.78 183
43.8 190
43.82 193
43.84 205
43.86 232
43.88 194
43.9 213
43.92 222
43.94 230
43.96 218
43.98 222
44 216
44.02 236
44.04 218
44.06 203
44.08 204
44.1 218
44.12 214
44.14 209
44.16 201
44.18 173
44.2 211
44.22 184
44.24 151
44.26 178
44.28 170
44.3 196
44.32 165
44.34 171
44.36 171
44.38 156
44.4 151
44.42 155
44.44 171
44.46 151
44.48 164
44.5 149
44.52 150
44.54 138
44.56 142
44.58 169
44.6 156
44.62 148
44.64 157
44.66 140
44.68 143
44.7 182
44.72 129
44.74 145
44.76 144
44.78 130
44.8 141
44.82 157
44.84 143
44.86 175
44.88 170
44.9 145
44.92 165
44.94 173
44.96 169
44.98 154
45 167
45.02 150
45.04 172
45.06 153
45.08 176
45.1 171
45.12 157
45.14 180
45.16 187
45.18 188
45.2 184
45.22 185
45.24 207
45.26 195
45.28 178
45.3 202
45.32 182
45.34 182
45.36 172
45.38 174
45.4 185
45.42 169
45.44 173
45.46 196
45.48 180
45.5 160
45.52 174
45.54 176
45.56 160
45.58 160
45.6 147
45.62 173
45.64 157
45.66 166
45.68 179
45.7 155
45.72 170
45.74 176
45.76 152
45.78 155
45.8 192
45.82 163
45.84 167
45.86 193
45.88 174
45.9 192
45.92 195
45.94 206
45.96 224
45.98 277
46 272
46.02 315
46.04 387
46.06 468
46.08 483
46.1 527
46.12 487
46.14 516
46.16 476
46.18 466
46.2 403
46.22 364
46.24 318
46.26 269
46.28 267
46.3 220
46.32 206
46.34 200
46.36 196
46.38 176
46.4 175
46.42 177
46.44 173
46.46 174
46.48 180
46.5 153
46.52 151
46.54 168
46.56 148
46.58 165
46.6 170
46.62 156
46.64 167
46.66 169
46.68 159
46.7 142
46.72 148
46.74 153
46.76 155
46.78 151
46.8 182
46.82 179
46.84 168
46.86 167
46.88 172
46.9 164
46.92 178
46.94 209
46.96 206
46.98 253
47 225
47.02 265
47.04 289
47.06 318
47.08 323
47.1 336
47.12 314
47.14 306
47.16 286
47.18 293
47.2 256
47.22 221
47.24 207
47.26 173
47.28 188
47.3 169
47.32 146
47.34 171
47.36 171
47.38 142
47.4 160
47.42 140
47.44 152
47.46 171
47.48 153
47.5 152
47.52 153
47.54 145
47.56 161
47.58 176
47.6 163
47.62 180
47.64 136
47.66 130
47.68 161
47.7 156
47.72 150
47.74 170
47.76 167
47.78 151
47.8 175
47.82 169
47.84 189
47.86 157
47.88 164
47.9 143
47.92 157
47.94 168
47.96 172
47.98 162
48 187
48.02 174
48.04 157
48.06 153
48.08 163
48.1 149
48.12 160
48.14 164
48.16 164
48.18 145
48.2 124
48.22 155
48.24 158
48.26 137
48.28 169
48.3 184
48.32 176
48.34 165
48.36 130
48.38 165
48.4 138
48.42 152
48.44 150
48.46 142
48.48 143
48.5 133
48.52 127
48.54 153
48.56 165
48.58 169
48.6 176
48.62 144
48.64 183
48.66 192
48.68 195
48.7 210
48.72 224
48.74 263
48.76 258
48.78 242
48.8 282
48.82 254
48.84 270
48.86 253
48.88 261
48.9 233
48.92 206
48.94 223
48.96 178
48.98 211
49 197
49.02 191
49.04 174
49.06 152
49.08 175
49.1 190
49.12 166
49.14 167
49.16 198
49.18 170
49.2 166
49.22 166
49.24 152
49.26 156
49.28 180
49.3 159
49.32 178
49.34 148
49.36 189
49.38 193
49.4 171
49.42 199
49.44 201
49.46 214
49.48 225
49.5 218
49.52 260
49.54 275
49.56 332
49.58 334
49.6 354
49.62 423
49.64 441
49.66 471
49.68 445
49.7 427
49.72 427
49.74 443
49.76 370
49.78 333
49.8 316
49.82 282
49.84 239
49.86 240
49.88 251
49.9 204
49.92 218
49.94 217
49.96 207
49.98 215
50 211
50.02 203
50.04 231
50.06 214
50.08 192
50.1 205
50.12 205
50.14 205
50.16 206
50.18 211
50.2 186
50.22 182
50.24 183
50.26 164
50.28 185
50.3 167
50.32 169
50.34 177
50.36 165
50.38 183
50.4 151
50.42 201
50.44 152
50.46 167
50.48 195
50.5 184
50.52 185
50.54 189
50.56 215
50.58 178
50.6 196
50.62 195
50.64 199
50.66 216
50.68 193
50.7 186
50.72 191
50.74 198
50.76 199
50.78 176
50.8 192
50.82 201
50.84 210
50.86 187
50.88 193
50.9 151
50.92 151
50.94 151
50.96 160
50.98 171
51 185
51.02 154
51.04 182
51.06 153
51.08 141
51.1 166
51.12 172
51.14 151
51.16 152
51.18 141
51.2 171
51.22 147
51.24 159
51.26 153
51.28 140
51.3 153
51.32 169
51.34 114
51.36 125
51.38 147
51.4 131
51.42 137
51.44 141
51.46 120
51.48 141
51.5 165
51.52 125
51.54 126
51.56 174
51.58 171
51.6 165
51.62 150
51.64 162
51.66 160
51.68 141
51.7 153
51.72 169
51.74 146
51.76 136
51.78 135
51.8 134
51.82 142
51.84 124
51.86 153
51.88 137
51.9 142
51.92 122
51.94 111
51.96 152
51.98 126
52 165
52.02 143
52.04 127
52.06 138
52.08 144
52.1 123
52.12 126
52.14 139
52.16 149
52.18 134
52.2 131
52.22 139
52.24 139
52.26 142
52.28 128
52.3 148
52.32 111
52.34 165
52.36 125
52.38 127
52.4 133
52.42 128
52.44 144
52.46 148
52.48 148
52.5 158
52.52 124
52.54 142
52.56 159
52.58 158
52.6 138
52.62 163
52.64 144
52.66 167
52.68 156
52.7 162
52.72 150
52.74 164
52.76 175
52.78 157
52.8 189
52.82 169
52.84 189
52.86 173
52.88 190
52.9 180
52.92 173
52.94 185
52.96 172
52.98 153
53 173
53.02 174
53.04 164
53.06 171
53.08 141
53.1 168
53.12 143
53.14 150
53.16 147
53.18 152
53.2 145
53.22 133
53.24 154
53.26 149
53.28 133
53.3 132
53.32 154
53.34 158
53.36 157
53.38 130
53.4 151
53.42 154
53.44 168
53.46 162
53.48 171
53.5 198
53.52 191
53.54 212
53.56 234
53.58 260
53.6 287
53.62 270
53.64 340
53.66 302
53.68 329
53.7 317
53.72 276
53.74 277
53.76 237
53.78 250
53.8 243
53.82 212
53.84 223
53.86 172
53.88 192
53.9 201
53.92 170
53.94 184
53.96 165
53.98 140
54 163
54.02 156
54.04 157
54.06 168
54.08 151
54.1 167
54.12 139
54.14 139
54.16 129
54.18 127
54.2 131
54.22 127
54.24 120
54.26 149
54.28 134
54.3 124
54.32 125
54.34 135
54.36 126
54.38 141
54.4 139
54.42 120
54.44 126
54.46 116
54.48 137
54.5 119
54.52 125
54.54 117
54.56 137
54.58 119
54.6 112
54.62 138
54.64 129
54.66 131
54.68 127
54.7 124
54.72 126
54.74 135
54.76 130
54.78 120
54.8 112
54.82 115
54.84 114
54.86 151
54.88 134
54.9 112
54.92 126
54.94 124
54.96 143
54.98 133
55 144
55.02 145
55.04 152
55.06 119
55.08 136
55.1 128
55.12 117
55.14 133
55.16 163
55.18 176
55.2 161
55.22 165
55.24 147
55.26 139
55.28 159
55.3 148
55.32 165
55.34 180
55.36 155
55.38 188
55.4 161
55.42 160
55.44 163
55.46 170
55.48 147
55.5 130
55.52 164
55.54 132
55.56 143
55.58 151
55.6 164
55.62 134
55.64 141
55.66 141
55.68 152
55.7 171
55.72 145
55.74 178
55.76 150
55.78 147
55.8 163
55.82 126
55.84 143
55.86 131
55.88 127
55.9 142
55.92 118
55.94 132
55.96 141
55.98 126
56 134
56.02 130
56.04 126
56.06 115
56.08 114
56.1 121
56.12 113
56.14 135
56.16 106
56.18 119
56.2 124
56.22 135
56.24 142
56.26 121
56.28 120
56.3 131
56.32 114
56.34 137
56.36 133
56.38 133
56.4 141
56.42 125
56.44 142
56.46 148
56.48 133
56.5 112
56.52 135
56.54 126
56.56 149
56.58 149
56.6 168
56.62 170
56.64 148
56.66 137
56.68 142
56.7 133
56.72 140
56.74 127
56.76 114
56.78 138
56.8 133
56.82 120
56.84 117
56.86 125
56.88 127
56.9 102
56.92 123
56.94 116
56.96 121
56.98 93
57 126
57.02 106
57.04 115
57.06 143
57.08 127
57.1 117
57.12 125
57.14 109
57.16 112
57.18 109
57.2 110
57.22 126
57.24 116
57.26 124
57.28 136
57.3 136
57.32 111
57.34 119
57.36 121
57.38 115
57.4 123
57.42 147
57.44 125
57.46 135
57.48 149
57.5 128
57.52 151
57.54 148
57.56 164
57.58 179
57.6 148
57.62 169
57.64 164
57.66 154
57.68 154
57.7 169
57.72 170
57.74 188
57.76 186
57.78 169
57.8 166
57.82 150
57.84 178
57.86 151
57.88 158
57.9 154
57.92 177
57.94 147
57.96 159
57.98 131
58 126
58.02 170
58.04 142
58.06 146
58.08 134
58.1 135
58.12 140
58.14 141
58.16 147
58.18 139
58.2 137
58.22 135
58.24 178
58.26 149
58.28 168
58.3 132
58.32 149
58.34 164
58.36 158
58.38 166
58.4 161
58.42 187
58.44 189
58.46 175
58.48 192
58.5 213
58.52 208
58.54 192
58.56 218
58.58 222
58.6 214
58.62 238
58.64 270
58.66 247
58.68 267
58.7 273
58.72 357
58.74 324
58.76 368
58.78 428
58.8 466
58.82 542
58.84 570
58.86 673
58.88 640
58.9 714
58.92 652
58.94 648
58.96 557
58.98 532
59 454
59.02 401
59.04 413
59.06 339
59.08 310
59.1 264
59.12 214
59.14 164
59.16 155
59.18 161
59.2 155
59.22 158
59.24 173
59.26 157
59.28 157
59.3 173
59.32 165
59.34 159
59.36 207
59.38 205
59.4 185
59.42 235
59.44 258
59.46 261
59.48 303
59.5 250
59.52 294
59.54 301
59.56 289
59.58 278
59.6 284
59.62 236
59.64 262
59.66 223
59.68 228
59.7 218
59.72 203
59.74 190
59.76 151
59.78 157
59.8 165
59.82 160
59.84 128
59.86 133
59.88 136
59.9 133
59.92 121
59.94 127
59.96 138
59.98 141
60 135
60.02 130
60.04 127
60.06 131
60.08 151
60.1 145
60.12 128
60.14 156
60.16 168
60.18 161
60.2 178
60.22 172
60.24 153
60.26 163
60.28 166
60.3 167
60.32 172
60.34 163
60.36 143
60.38 143
60.4 139
60.42 142
60.44 145
60.46 133
60.48 157
60.5 131
60.52 129
60.54 134
60.56 137
60.58 108
60.6 132
60.62 133
60.64 112
60.66 123
60.68 115
60.7 121
60.72 105
60.74 110
60.76 103
60.78 96
60.8 95
60.82 115
60.84 121
60.86 105
60.88 107
60.9 103
60.92 104
60.94 109
60.96 117
60.98 92
61 98
61.02 114
61.04 83
61.06 99
61.08 85
61.1 100
61.12 95
61.14 93
61.16 96
61.18 99
61.2 113
61.22 94
61.24 85
61.26 115
61.28 120
61.3 130
61.32 106
61.34 100
61.36 88
61.38 122
61.4 111
61.42 118
61.44 137
61.46 108
61.48 122
61.5 143
61.52 127
61.54 113
61.56 113
61.58 136
61.6 133
61.62 123
61.64 117
61.66 120
61.68 131
61.7 147
61.72 121
61.74 124
61.76 111
61.78 128
61.8 122
61.82 117
61.84 116
61.86 123
61.88 137
61.9 125
61.92 129
61.94 127
61.96 118
61.98 119
62 132
62.02 120
62.04 111
62.06 123
62.08 116
62.1 108
62.12 136
62.14 112
62.16 138
62.18 105
62.2 117
62.22 108
62.24 112
62.26 120
62.28 101
62.3 97
62.32 109
62.34 117
62.36 107
62.38 106
62.4 130
62.42 119
62.44 113
62.46 125
62.48 116
62.5 123
62.52 117
62.54 124
62.56 113
62.58 111
62.6 123
62.62 135
62.64 125
62.66 138
62.68 111
62.7 123
62.72 97
62.74 114
62.76 123
62.78 103
62.8 112
62.82 109
62.84 102
62.86 93
62.88 86
62.9 97
62.92 99
62.94 87
62.96 113
62.98 72
63 122
63.02 96
63.04 100
63.06 104
63.08 107
63.1 82
63.12 72
63.14 90
63.16 98
63.18 101
63.2 120
63.22 87
63.24 91
63.26 87
63.28 103
63.3 95
63.32 88
63.34 98
63.36 78
63.38 99
63.4 91
63.42 116
63.44 115
63.46 99
63.48 112
63.5 89
63.52 84
63.54 117
63.56 108
63.58 136
63.6 103
63.62 107
63.64 115
63.66 100
63.68 121
63.7 126
63.72 113
63.74 90
63.76 86
63.78 111
63.8 99
63.82 98
63.84 84
63.86 96
63.88 105
63.9 121
63.92 102
63.94 106
63.96 97
63.98 111
64 114
64.02 108
64.04 115
64.06 93
64.08 107
64.1 119
64.12 123
64.14 114
64.16 104
64.18 119
64.2 101
64.22 104
64.24 114
64.26 105
64.28 106
64.3 89
64.32 121
64.34 129
64.36 126
64.38 117
64.4 113
64.42 141
64.44 147
64.46 149
64.48 162
64.5 181
64.52 191
64.54 189
64.56 205
64.58 251
64.6 244
64.62 246
64.64 260
64.66 265
64.68 260
64.7 236
64.72 226
64.74 228
64.76 192
64.78 180
64.8 176
64.82 170
64.84 151
64.86 140
64.88 112
64.9 141
64.92 105
64.94 119
64.96 114
64.98 102
65 100
65.02 124
65.04 120
65.06 130
65.08 135
65.1 134
65.12 147
65.14 154
65.16 150
65.18 169
65.2 210
65.22 150
65.24 138
65.26 167
65.28 141
65.3 135
65.32 167
65.34 133
65.36 119
65.38 129
65.4 124
65.42 105
65.44 114
65.46 107
65.48 105
65.5 99
65.52 100
65.54 116
65.56 97
65.58 104
65.6 94
65.62 102
65.64 105
65.66 91
65.68 97
65.7 103
65.72 95
65.74 90
65.76 102
65.78 86
65.8 101
65.82 82
65.84 94
65.86 101
65.88 103
65.9 96
65.92 101
65.94 90
65.96 103
65.98 103
66 108
66.02 90
66.04 92
66.06 93
66.08 88
66.1 86
66.12 72
66.14 89
66.16 92
66.18 97
66.2 89
66.22 102
66.24 97
66.26 94
66.28 83
66.3 86
66.32 80
66.34 84
66.36 80
66.38 105
66.4 105
66.42 114
66.44 105
66.46 83
66.48 114
66.5 115
66.52 90
66.54 100
66.56 89
66.58 99
66.6 106
66.62 113
66.64 122
66.66 88
66.68 107
66.7 102
66.72 105
66.74 96
66.76 100
66.78 98
66.8 91
66.82 113
66.84 100
66.86 119
66.88 86
66.9 98
66.92 121
66.94 94
66.96 111
66.98 87
67 97
67.02 93
67.04 104
67.06 92
67.08 107
67.1 94
67.12 88
67.14 92
67.16 107
67.18 87
67.2 76
67.22 93
67.24 94
67.26 100
67.28 94
67.3 71
67.32 87
67.34 104
67.36 96
67.38 91
67.4 89
67.42 97
67.44 97
67.46 113
67.48 102
67.5 98
67.52 99
67.54 125
67.56 100
67.58 142
67.6 108
67.62 122
67.64 103
67.66 131
67.68 110
67.7 138
67.72 109
67.74 109
67.76 130
67.78 114
67.8 130
67.82 112
67.84 119
67.86 133
67.88 133
67.9 114
67.92 126
67.94 128
67.96 127
67.98 125
68 134
68.02 108
68.04 109
68.06 116
68.08 111
68.1 104
68.12 118
68.14 126
68.16 109
68.18 118
68.2 116
68.22 127
68.24 113
68.26 121
68.28 97
68.3 107
68.32 99
68.34 113
68.36 108
68.38 110
68.4 103
68.42 82
68.44 83
68.46 100
68.48 95
68.5 81
68.52 72
68.54 79
68.56 90
68.58 87
68.6 79
68.62 87
68.64 85
68.66 97
68.68 85
68.7 76
68.72 76
68.74 86
68.76 85
68.78 80
68.8 99
68.82 72
68.84 83
68.86 72
68.88 93
68.9 85
68.92 78
68.94 76
68.96 94
68.98 83
69 96
69.02 94
69.04 92
69.06 99
69.08 111
69.1 97
69.12 92
69.14 104
69.16 107
69.18 95
69.2 97
69.22 107
69.24 108
69.26 112
69.28 105
69.3 117
69.32 92
69.34 111
69.36 124
69.38 129
69.4 134
69.42 107
69.44 108
69.46 105
69.48 103
69.5 98
69.52 118
69.54 98
69.56 87
69.58 99
69.6 87
69.62 87
69.64 100
69.66 95
69.68 92
69.7 97
69.72 83
69.74 89
69.76 92
69.78 98
69.8 70
69.82 94
69.84 82
69.86 83
69.88 98
69.9 105
69.92 97
69.94 106
69.96 110
69.98 97
70 83
70.02 81
70.04 89
70.06 88
70.08 87
70.1 106
70.12 108
70.14 91
70.16 96
70.18 96
70.2 79
70.22 96
70.24 88
70.26 91
70.28 94
70.3 113
70.32 81
70.34 79
70.36 84
70.38 105
70.4 95
70.42 81
70.44 93
70.46 97
70.48 102
70.5 117
70.52 111
70.54 111
70.56 113
70.58 117
70.6 113
70.62 116
70.64 156
70.66 143
70.68 139
70.7 176
70.72 206
70.74 214
70.76 245
70.78 294
70.8 352
70.82 372
70.84 407
70.86 446
70.88 449
70.9 474
70.92 402
70.94 385
70.96 334
70.98 319
71 291
71.02 319
71.04 298
71.06 296
71.08 249
71.1 242
71.12 176
71.14 168
71.16 136
71.18 154
71.2 149
71.22 127
71.24 117
71.26 115
71.28 115
71.3 109
71.32 114
71.34 123
71.36 114
71.38 117
71.4 105
71.42 114
71.44 104
71.46 98
71.48 116
71.5 89
71.52 111
71.54 84
71.56 89
71.58 82
71.6 106
71.62 94
71.64 97
71.66 82
71.68 110
71.7 95
71.72 113
71.74 96
71.76 77
71.78 79
71.8 74
71.82 79
71.84 101
71.86 90
71.88 103
71.9 99
71.92 99
71.94 103
71.96 102
71.98 95
72 98
72.02 91
72.04 83
72.06 81
72.08 86
72.1 98
72.12 76
72.14 80
72.16 88
72.18 82
72.2 99
72.22 88
72.24 112
72.26 86
72.28 85
72.3 108
72.32 101
72.34 91
72.36 93
72.38 91
72.4 112
72.42 99
72.44 106
72.46 107
72.48 91
72.5 95
72.52 120
72.54 113
72.56 95
72.58 82
72.6 92
72.62 104
72.64 106
72.66 83
72.68 123
72.7 110
72.72 98
72.74 94
72.76 98
72.78 90
72.8 88
72.82 106
72.84 85
72.86 93
72.88 105
72.9 100
72.92 103
72.94 84
72.96 104
72.98 87
73 113
73.02 99
73.04 101
73.06 92
73.08 112
73.1 115
73.12 121
73.14 115
73.16 120
73.18 118
73.2 138
73.22 117
73.24 147
73.26 104
73.28 122
73.3 133
73.32 140
73.34 135
73.36 146
73.38 148
73.4 149
73.42 152
73.44 142
73.46 155
73.48 138
73.5 136
73.52 138
73.54 122
73.56 152
73.58 134
73.6 117
73.62 134
73.64 112
73.66 118
73.68 118
73.7 100
73.72 106
73.74 96
73.76 116
73.78 106
73.8 91
73.82 124
73.84 96
73.86 102
73.88 84
73.9 107
73.92 85
73.94 99
73.96 90
73.98 109
74 77
74.02 87
74.04 84
74.06 83
74.08 84
74.1 102
74.12 105
74.14 82
74.16 86
74.18 109
74.2 92
74.22 100
74.24 94
74.26 85
74.28 91
74.3 118
74.32 85
74.34 78
74.36 95
74.38 115
74.4 97
74.42 97
74.44 86
74.46 95
74.48 113
74.5 93
74.52 93
74.54 88
74.56 110
74.58 102
74.6 80
74.62 88
74.64 99
74.66 94
74.68 89
74.7 82
74.72 82
74.74 72
74.76 108
74.78 86
74.8 81
74.82 74
74.84 90
74.86 91
74.88 91
74.9 83
74.92 92
74.94 80
74.96 90
74.98 86
75 89
