2 2323
2.02 2128
2.04 2056
2.06 1918
2.08 1861
2.1 1799
2.12 1660
2.14 1562
2.16 1592
2.18 1521
2.2 1458
2.22 1376
2.24 1466
2.26 1437
2.28 1348
2.3 1318
2.32 1337
2.34 1311
2.36 1313
2.38 1298
2.4 1291
2.42 1279
2.44 1244
2.46 1198
2.48 1214
2.5 1241
2.52 1171
2.54 1128
2.56 1209
2.58 1186
2.6 1102
2.62 1085
2.64 1137
2.66 1101
2.68 1119
2.7 1056
2.72 997
2.74 1072
2.76 1078
2.78 1019
2.8 958
2.82 1047
2.84 996
2.86 1039
2.88 1008
2.9 1000
2.92 935
2.94 1007
2.96 941
2.98 941
3 935
3.02 987
3.04 943
3.06 975
3.08 923
3.1 837
3.12 874
3.14 855
3.16 829
3.18 848
3.2 838
3.22 872
3.24 887
3.26 847
3.28 809
3.3 838
3.32 874
3.34 797
3.36 798
3.38 832
3.4 821
3.42 774
3.44 813
3.46 817
3.48 800
3.5 772
3.52 729
3.54 781
3.56 719
3.58 734
3.6 722
3.62 742
3.64 722
3.66 739
3.68 720
3.7 723
3.72 682
3.74 749
3.76 693
3.78 632
3.8 715
3.82 714
3.84 714
3.86 624
3.88 657
3.9 686
3.92 657
3.94 708
3.96 625
3.98 600
4 671
4.02 672
4.04 681
4.06 603
4.08 567
4.1 648
4.12 617
4.14 628
4.16 647
4.18 634
4.2 619
4.22 577
4.24 578
4.26 586
4.28 595
4.3 577
4.32 608
4.34 504
4.36 575
4.38 582
4.4 573
4.42 542
4.44 543
4.46 548
4.48 547
4.5 547
4.52 530
4.54 564
4.56 532
4.58 536
4.6 521
4.62 548
4.64 544
4.66 546
4.68 539
4.7 549
4.72 549
4.74 531
4.76 459
4.78 512
4.8 511
4.82 504
4.84 515
4.86 545
4.88 499
4.9 534
4.92 471
4.94 509
4.96 515
4.98 486
5 488
5.02 494
5.04 524
5.06 482
5.08 446
5.1 484
5.12 447
5.14 464
5.16 449
5.18 440
5.2 495
5.22 417
5.24 426
5.26 475
5.28 438
5.3 417
5.32 473
5.34 443
5.36 413
5.38 425
5.4 423
5.42 427
5.44 407
5.46 449
5.48 439
5.5 446
5.52 433
5.54 434
5.56 393
5.58 392
5.6 442
5.62 441
5.64 443
5.66 384
5.68 469
5.7 406
5.72 410
5.74 445
5.76 425
5.78 407
5.8 387
5.82 397
5.84 413
5.86 387
5.88 397
5.9 411
5.92 373
5.94 364
5.96 368
5.98 380
6 378
6.02 398
6.04 420
6.06 397
6.08 403
6.1 391
6.12 341
6.14 407
6.16 372
6.18 386
6.2 353
6.22 391
6.24 410
6.26 415
6.28 399
6.3 362
6.32 390
6.34 391
6.36 378
6.38 370
6.4 389
6.42 341
6.44 384
6.46 366
6.48 341
6.5 407
6.52 375
6.54 380
6.56 369
6.58 334
6.6 374
6.62 370
6.64 356
6.66 382
6.68 333
6.7 333
6.72 384
6.74 342
6.76 343
6.78 360
6.8 339
6.82 376
6.84 388
6.86 375
6.88 352
6.9 391
6.92 365
6.94 373
6.96 340
6.98 366
7 394
7.02 363
7.04 344
7.06 379
7.08 417
7.1 427
7.12 371
7.14 384
7.16 398
7.18 376
7.2 381
7.22 370
7.24 425
7.26 363
7.28 387
7.3 421
7.32 410
7.34 399
7.36 395
7.38 389
7.4 359
7.42 403
7.44 398
7.46 379
7.48 367
7.5 380
7.52 420
7.54 376
7.56 349
7.58 358
7.6 372
7.62 375
7.64 338
7.66 363
7.68 346
7.7 348
7.72 361
7.74 337
7.76 343
7.78 358
7.8 352
7.82 329
7.84 342
7.86 329
7.88 338
7.9 343
7.92 313
7.94 333
7.96 338
7.98 335
8 335
8.02 308
8.04 297
8.06 309
8.08 323
8.1 290
8.12 313
8.14 256
8.16 257
8.18 291
8.2 298
8.22 303
8.24 294
8.26 295
8.28 300
8.3 293
8.32 279
8.34 307
8.36 299
8.38 288
8.4 274
8.42 262
8.44 295
8.46 304
8.48 326
8.5 275
8.52 246
8.54 261
8.56 250
8.58 279
8.6 265
8.62 287
8.64 265
8.66 283
8.68 261
8.7 273
8.72 313
8.74 268
8.76 308
8.78 255
8.8 280
8.82 227
8.84 283
8.86 265
8.88 259
8.9 253
8.92 262
8.94 282
8.96 241
8.98 247
9 248
9.02 237
9.04 270
9.06 253
9.08 233
9.1 244
9.12 231
9.14 265
9.16 231
9.18 217
9.2 275
9.22 266
9.24 243
9.26 245
9.28 245
9.3 249
9.32 271
9.34 267
9.36 223
9.38 259
9.4 232
9.42 244
9.44 249
9.46 276
9.48 267
9.5 247
9.52 222
9.54 249
9.56 272
9.58 257
9.6 217
9.62 224
9.64 245
9.66 220
9.68 225
9.7 248
9.72 234
9.74 223
9.76 243
9.78 245
9.8 240
9.82 213
9.84 247
9.86 246
9.88 231
9.9 229
9.92 240
9.94 239
9.96 262
9.98 215
10 256
10.02 250
10.04 223
10.06 221
10.08 270
10.1 229
10.12 290
10.14 269
10.16 277
10.18 275
10.2 262
10.22 291
10.24 316
10.26 322
10.28 307
10.3 292
10.32 290
10.34 261
10.36 229
10.38 223
10.4 253
10.42 239
10.44 198
10.46 241
10.48 231
10.5 243
10.52 234
10.54 226
10.56 204
10.58 215
10.6 199
10.62 246
10.64 202
10.66 211
10.68 208
10.7 215
10.72 248
10.74 200
10.76 208
10.78 216
10.8 186
10.82 215
10.84 198
10.86 200
10.88 206
10.9 201
10.92 202
10.94 222
10.96 217
10.98 218
11 195
11.02 190
11.04 210
11.06 200
11.08 210
11.1 260
11.12 216
11.14 211
11.16 225
11.18 215
11.2 237
11.22 211
11.24 203
11.26 244
11.28 243
11.3 234
11.32 209
11.34 228
11.36 233
11.38 221
11.4 221
11.42 215
11.44 228
11.46 215
11.48 206
11.5 182
11.52 178
11.54 187
11.56 216
11.58 204
11.6 188
11.62 188
11.64 198
11.66 201
11.68 182
11.7 203
11.72 175
11.74 189
11.76 181
11.78 202
11.8 211
11.82 183
11.84 177
11.86 216
11.88 195
11.9 190
11.92 207
11.94 184
11.96 197
11.98 235
12 206
12.02 226
12.04 209
12.06 208
12.08 223
12.1 251
12.12 262
12.14 276
12.16 266
12.18 297
12.2 286
12.22 314
12.24 285
12.26 291
12.28 242
12.3 252
12.32 217
12.34 201
12.36 216
12.38 174
12.4 198
12.42 185
12.44 185
12.46 182
12.48 174
12.5 198
12.52 177
12.54 200
12.56 157
12.58 183
12.6 196
12.62 169
12.64 199
12.66 190
12.68 188
12.7 170
12.72 191
12.74 167
12.76 179
12.78 202
12.8 168
12.82 176
12.84 193
12.86 191
12.88 190
12.9 167
12.92 186
12.94 193
12.96 166
12.98 170
13 172
13.02 182
13.04 200
13.06 196
13.08 186
13.1 180
13.12 175
13.14 164
13.16 170
13.18 166
13.2 149
13.22 163
13.24 193
13.26 186
13.28 176
13.3 177
13.32 203
13.34 171
13.36 176
13.38 179
13.4 171
13.42 158
13.44 185
13.46 147
13.48 166
13.5 183
13.52 174
13.54 160
13.56 159
13.58 169
13.6 158
13.62 187
13.64 156
13.66 176
13.68 159
13.7 140
13.72 167
13.74 185
13.76 169
13.78 182
13.8 176
13.82 181
13.84 168
13.86 184
13.88 179
13.9 172
13.92 167
13.94 192
13.96 173
13.98 147
14 185
14.02 176
14.04 187
14.06 177
14.08 196
14.1 186
14.12 167
14.14 177
14.16 192
14.18 200
14.2 204
14.22 191
14.24 197
14.26 194
14.28 194
14.3 185
14.32 207
14.34 229
14.36 189
14.38 216
14.4 221
14.42 205
14.44 247
14.46 219
14.48 220
14.5 214
14.52 223
14.54 203
14.56 189
14.58 178
14.6 206
14.62 192
14.64 161
14.66 191
14.68 144
14.7 162
14.72 169
14.74 161
14.76 202
14.78 168
14.8 164
14.82 189
14.84 165
14.86 184
14.88 169
14.9 167
14.92 184
14.94 163
14.96 168
14.98 158
15 153
15.02 183
15.04 159
15.06 153
15.08 148
15.1 186
15.12 175
15.14 168
15.16 189
15.18 173
15.2 158
15.22 177
15.24 148
15.26 164
15.28 162
15.3 173
15.32 149
15.34 158
15.36 170
15.38 179
15.4 162
15.42 163
15.44 186
15.46 164
15.48 165
15.5 166
15.52 177
15.54 149
15.56 152
15.58 172
15.6 168
15.62 160
15.64 172
15.66 157
15.68 146
15.7 172
15.72 194
15.74 168
15.76 175
15.78 154
15.8 184
15.82 158
15.84 182
15.86 192
15.88 189
15.9 203
15.92 209
15.94 176
15.96 224
15.98 210
16 180
16.02 197
16.04 220
16.06 226
16.08 199
16.1 233
16.12 181
16.14 200
16.16 203
16.18 180
16.2 164
16.22 182
16.24 154
16.26 147
16.28 165
16.3 170
16.32 166
16.34 157
16.36 170
16.38 172
16.4 158
16.42 137
16.44 158
16.46 151
16.48 163
16.5 157
16.52 158
16.54 151
16.56 172
16.58 145
16.6 160
16.62 167
16.64 157
16.66 141
16.68 162
16.7 162
16.72 167
16.74 142
16.76 165
16.78 147
16.8 168
16.82 157
16.84 160
16.86 150
16.88 181
16.9 136
16.92 143
16.94 146
16.96 144
16.98 157
17 148
17.02 129
17.04 147
17.06 121
17.08 149
17.1 158
17.12 135
17.14 153
17.16 145
17.18 139
17.2 174
17.22 143
17.24 160
17.26 143
17.28 141
17.3 162
17.32 160
17.34 152
17.36 201
17.38 141
17.4 148
17.42 172
17.44 174
17.46 170
17.48 149
17.5 183
17.52 169
17.54 186
17.56 160
17.58 145
17.6 155
17.62 141
17.64 160
17.66 149
17.68 128
17.7 139
17.72 151
17.74 144
17.76 140
17.78 138
17.8 146
17.82 151
17.84 159
17.86 139
17.88 153
17.9 149
17.92 152
17.94 149
17.96 153
17.98 148
18 139
18.02 159
18.04 167
18.06 147
18.08 152
18.1 141
18.12 172
18.14 164
18.16 148
18.18 146
18.2 159
18.22 171
18.24 169
18.26 155
18.28 164
18.3 120
18.32 154
18.34 156
18.36 172
18.38 155
18.4 168
18.42 133
18.44 146
18.46 136
18.48 169
18.5 152
18.52 141
18.54 155
18.56 147
18.58 143
18.6 159
18.62 152
18.64 151
18.66 133
18.68 142
18.7 166
18.72 142
18.74 160
18.76 143
18.78 171
18.8 133
18.82 135
18.84 140
18.86 129
18.88 141
18.9 158
18.92 137
18.94 181
18.96 147
18.98 149
19 114
19.02 144
19.04 140
19.06 130
19.08 161
19.1 156
19.12 156
19.14 160
19.16 141
19.18 157
19.2 136
19.22 156
19.24 141
19.26 131
19.28 155
19.3 168
19.32 164
19.34 134
19.36 141
19.38 147
19.4 146
19.42 172
19.44 152
19.46 154
19.48 151
19.5 157
19.52 154
19.54 143
19.56 162
19.58 165
19.6 163
19.62 152
19.64 140
19.66 141
19.68 135
19.7 145
19.72 150
19.74 148
19.76 147
19.78 144
19.8 139
19.82 149
19.84 136
19.86 151
19.88 155
19.9 175
19.92 145
19.94 132
19.96 153
19.98 153
20 137
20.02 160
20.04 151
20.06 154
20.08 147
20.1 148
20.12 154
20.14 169
20.16 160
20.18 140
20.2 181
20.22 146
20.24 149
20.26 140
20.28 170
20.3 168
20.32 156
20.34 148
20.36 185
20.38 159
20.4 140
20.42 171
20.44 164
20.46 160
20.48 173
20.5 188
20.52 190
20.54 170
20.56 180
20.58 208
20.6 198
20.62 188
20.64 168
20.66 214
20.68 214
20.7 210
20.72 202
20.74 172
20.76 189
20.78 190
20.8 196
20.82 173
20.84 171
20.86 203
20.88 163
20.9 170
20.92 170
20.94 198
20.96 205
20.98 193
21 178
21.02 194
21.04 164
21.06 158
21.08 170
21.1 156
21.12 138
21.14 147
21.16 162
21.18 156
21.2 148
21.22 157
21.24 155
21.26 163
21.28 165
21.3 164
21.32 154
21.34 172
21.36 160
21.38 167
21.4 166
21.42 177
21.44 158
21.46 176
21.48 161
21.5 191
21.52 170
21.54 153
21.56 143
21.58 164
21.6 160
21.62 184
21.64 164
21.66 158
21.68 187
21.7 171
21.72 170
21.74 178
21.76 189
21.78 161
21.8 194
21.82 172
21.84 202
21.86 186
21.88 152
21.9 174
21.92 188
21.94 191
21.96 185
21.98 182
22 203
22.02 182
22.04 156
22.06 183
22.08 186
22.1 171
22.12 192
22.14 162
22.16 173
22.18 170
22.2 168
22.22 183
22.24 186
22.26 208
22.28 195
22.3 199
22.32 220
22.34 193
22.36 215
22.38 226
22.4 232
22.42 207
22.44 239
22.46 211
22.48 222
22.5 218
22.52 220
22.54 209
22.56 210
22.58 213
22.6 175
22.62 197
22.64 188
22.66 212
22.68 210
22.7 214
22.72 196
22.74 219
22.76 239
22.78 219
22.8 242
22.82 261
22.84 281
22.86 310
22.88 329
22.9 312
22.92 327
22.94 346
22.96 327
22.98 368
23 358
23.02 395
23.04 380
23.06 425
23.08 395
23.1 430
23.12 367
23.14 351
23.16 377
23.18 325
23.2 308
23.22 256
23.24 267
23.26 256
23.28 215
23.3 222
23.32 210
23.34 198
23.36 223
23.38 231
23.4 225
23.42 220
23.44 203
23.46 223
23.48 227
23.5 240
23.52 212
23.54 206
23.56 214
23.58 228
23.6 199
23.62 198
23.64 213
23.66 220
23.68 221
23.7 192
23.72 199
23.74 178
23.76 211
23.78 200
23.8 216
23.82 207
23.84 191
23.86 186
23.88 198
23.9 253
23.92 260
23.94 270
23.96 284
23.98 305
24 308
24.02 317
24.04 355
24.06 426
24.08 520
24.1 594
24.12 758
24.14 912
24.16 1092
24.18 1275
24.2 1533
24.22 1575
24.24 1525
24.26 1412
24.28 1289
24.3 988
24.32 730
24.34 589
24.36 423
24.38 385
24.4 311
24.42 293
24.44 252
24.46 270
24.48 194
24.5 245
24.52 238
24.54 217
24.56 208
24.58 226
24.6 225
24.62 226
24.64 220
24.66 236
24.68 213
24.7 189
24.72 210
24.74 190
24.76 211
24.78 189
24.8 215
24.82 200
24.84 199
24.86 180
24.88 194
24.9 189
24.92 188
24.94 200
24.96 178
24.98 212
25 210
25.02 197
25.04 211
25.06 212
25.08 203
25.1 219
25.12 218
25.14 219
25.16 202
25.18 216
25.2 212
25.22 221
25.24 201
25.26 188
25.28 197
25.3 224
25.32 196
25.34 199
25.36 224
25.38 230
25.4 269
25.42 262
25.44 306
25.46 329
25.48 404
25.5 443
25.52 526
25.54 547
25.56 587
25.58 584
25.6 552
25.62 514
25.64 429
25.66 391
25.68 333
25.7 279
25.72 276
25.74 237
25.76 204
25.78 218
25.8 199
25.82 178
25.84 204
25.86 184
25.88 222
25.9 183
25.92 201
25.94 200
25.96 225
25.98 175
26 190
26.02 174
26.04 203
26.06 192
26.08 206
26.1 208
26.12 185
26.14 197
26.16 175
26.18 188
26.2 200
26.22 173
26.24 181
26.26 164
26.28 166
26.3 178
26.32 161
26.34 182
26.36 154
26.38 158
26.4 186
26.42 172
26.44 215
26.46 213
26.48 205
26.5 239
26.52 219
26.54 261
26.56 290
26.58 303
26.6 281
26.62 282
26.64 285
26.66 290
26.68 287
26.7 283
26.72 249
26.74 266
26.76 248
26.78 201
26.8 206
26.82 197
26.84 198
26.86 182
26.88 179
26.9 177
26.92 171
26.94 158
26.96 196
26.98 163
27 175
27.02 182
27.04 154
27.06 165
27.08 155
27.1 186
27.12 171
27.14 192
27.16 168
27.18 176
27.2 191
27.22 200
27.24 219
27.26 188
27.28 209
27.3 225
27.32 230
27.34 273
27.36 262
27.38 280
27.4 289
27.42 332
27.44 324
27.46 310
27.48 336
27.5 324
27.52 329
27.54 280
27.56 281
27.58 278
27.6 271
27.62 264
27.64 254
27.66 312
27.68 285
27.7 298
27.72 312
27.74 326
27.76 321
27.78 287
27.8 315
27.82 307
27.84 276
27.86 247
27.88 254
27.9 265
27.92 245
27.94 235
27.96 252
27.98 220
28 195
28.02 231
28.04 214
28.06 204
28.08 234
28.1 226
28.12 245
28.14 233
28.16 257
28.18 280
28.2 264
28.22 279
28.24 286
28.26 289
28.28 286
28.3 286
28.32 266
28.34 279
28.36 244
28.38 235
28.4 243
28.42 202
28.44 218
28.46 185
28.48 155
28.5 202
28.52 176
28.54 187
28.56 167
28.58 183
28.6 191
28.62 146
28.64 156
28.66 172
28.68 156
28.7 159
28.72 156
28.74 161
28.76 150
28.78 162
28.8 177
28.82 180
28.84 176
28.86 158
28.88 159
28.9 162
28.92 167
28.94 186
28.96 191
28.98 159
29 194
29.02 187
29.04 174
29.06 174
29.08 216
29.1 189
29.12 204
29.14 188
29.16 199
29.18 191
29.2 181
29.22 211
29.24 206
29.26 239
29.28 186
29.3 220
29.32 204
29.34 206
29.36 198
29.38 253
29.4 211
29.42 211
29.44 243
29.46 220
29.48 254
29.5 248
29.52 262
29.54 287
29.56 308
29.58 274
29.6 333
29.62 334
29.64 308
29.66 345
29.68 357
29.7 346
29.72 365
29.74 376
29.76 382
29.78 349
29.8 325
29.82 308
29.84 292
29.86 256
29.88 258
29.9 251
29.92 235
29.94 225
29.96 213
29.98 208
30 215
30.02 214
30.04 236
30.06 204
30.08 169
30.1 194
30.12 198
30.14 192
30.16 180
30.18 165
30.2 182
30.22 175
30.24 189
30.26 191
30.28 195
30.3 190
30.32 212
30.34 206
30.36 205
30.38 210
30.4 216
30.42 222
30.44 253
30.46 256
30.48 259
30.5 272
30.52 278
30.54 304
30.56 316
30.58 355
30.6 354
30.62 412
30.64 419
30.66 403
30.68 474
30.7 501
30.72 592
30.74 595
30.76 700
30.78 804
30.8 966
30.82 1201
30.84 1553
30.86 1937
30.88 2620
30.9 3475
30.92 4457
30.94 5466
30.96 6488
30.98 7060
31 7110
31.02 6783
31.04 5958
31.06 4793
31.08 3643
31.1 2756
31.12 1910
31.14 1407
31.16 1008
31.18 790
31.2 677
31.22 579
31.24 516
31.26 468
31.28 454
31.3 393
31.32 347
31.34 370
31.36 325
31.38 336
31.4 299
31.42 278
31.44 267
31.46 277
31.48 262
31.5 285
31.52 253
31.54 278
31.56 239
31.58 252
31.6 246
31.62 241
31.64 226
31.66 244
31.68 218
31.7 215
31.72 229
31.74 242
31.76 220
31.78 223
31.8 243
31.82 248
31.84 248
31.86 208
31.88 214
31.9 236
31.92 237
31.94 242
31.96 230
31.98 218
32 260
32.02 231
32.04 236
32.06 253
32.08 239
32.1 253
32.12 233
32.14 262
32.16 290
32.18 347
32.2 389
32.22 454
32.24 478
32.26 566
32.28 635
32.3 726
32.32 798
32.34 837
32.36 919
32.38 871
32.4 846
32.42 826
32.44 753
32.46 827
32.48 773
32.5 745
32.52 769
32.54 737
32.56 709
32.58 740
32.6 686
32.62 650
32.64 567
32.66 490
32.68 428
32.7 395
32.72 333
32.74 294
32.76 266
32.78 266
32.8 257
32.82 233
32.84 237
32.86 251
32.88 278
32.9 244
32.92 236
32.94 285
32.96 251
32.98 275
33 271
33.02 297
33.04 249
33.06 247
33.08 209
33.1 196
33.12 184
33.14 168
33.16 162
33.18 157
33.2 135
33.22 184
33.24 204
33.26 152
33.28 170
33.3 193
33.32 204
33.34 193
33.36 180
33.38 211
33.4 202
33.42 193
33.44 201
33.46 184
33.48 197
33.5 189
33.52 151
33.54 144
33.56 135
33.58 131
33.6 147
33.62 140
33.64 119
33.66 134
33.68 146
33.7 117
33.72 134
33.74 116
33.76 131
33.78 127
33.8 123
33.82 109
33.84 108
33.86 122
33.88 109
33.9 119
33.92 153
33.94 132
33.96 114
33.98 121
34 124
34.02 130
34.04 134
34.06 130
34.08 114
34.1 107
34.12 121
34.14 116
34.16 117
34.18 101
34.2 132
34.22 112
34.24 135
34.26 111
34.28 94
34.3 101
34.32 135
34.34 125
34.36 158
34.38 117
34.4 124
34.42 142
34.44 156
34.46 139
34.48 156
34.5 145
34.52 165
34.54 160
34.56 180
34.58 167
34.6 210
34.62 223
34.64 215
34.66 236
34.68 232
34.7 244
34.72 263
34.74 234
34.76 276
34.78 256
34.8 245
34.82 256
34.84 256
34.86 233
34.88 257
34.9 216
34.92 204
34.94 212
34.96 200
34.98 199
35 179
35.02 159
35.04 145
35.06 159
35.08 166
35.1 159
35.12 172
35.14 148
35.16 168
35.18 169
35.2 167
35.22 179
35.24 164
35.26 210
35.28 232
35.3 226
35.32 269
35.34 243
35.36 278
35.38 293
35.4 277
35.42 315
35.44 298
35.46 274
35.48 251
35.5 300
35.52 265
35.54 272
35.56 237
35.58 182
35.6 184
35.62 176
35.64 134
35.66 163
35.68 168
35.7 150
35.72 171
35.74 174
35.76 152
35.78 147
35.8 195
35.82 187
35.84 195
35.86 201
35.88 229
35.9 216
35.92 266
35.94 250
35.96 233
35.98 227
36 280
36.02 263
36.04 213
36.06 196
36.08 167
36.1 189
36.12 158
36.14 145
36.16 136
36.18 126
36.2 149
36.22 163
36.24 151
36.26 151
36.28 148
36.3 163
36.32 145
36.34 155
36.36 166
36.38 193
36.4 199
36.42 210
36.44 188
36.46 223
36.48 177
36.5 189
36.52 202
36.54 189
36.56 228
36.58 185
36.6 186
36.62 191
36.64 183
36.66 213
36.68 176
36.7 182
36.72 163
36.74 141
36.76 173
36.78 141
36.8 144
36.82 146
36.84 153
36.86 134
36.88 125
36.9 130
36.92 134
36.94 149
36.96 121
36.98 117
37 124
37.02 131
37.04 125
37.06 137
37.08 147
37.1 125
37.12 120
37.14 109
37.16 132
37.18 143
37.2 125
37.22 139
37.24 158
37.26 132
37.28 144
37.3 143
37.32 170
37.34 160
37.36 138
37.38 171
37.4 154
37.42 149
37.44 158
37.46 147
37.48 159
37.5 155
37.52 157
37.54 152
37.56 137
37.58 132
37.6 139
37.62 139
37.64 137
37.66 127
37.68 135
37.7 148
37.72 108
37.74 126
37.76 132
37.78 125
37.8 128
37.82 112
37.84 145
37.86 122
37.88 119
37.9 144
37.92 150
37.94 125
37.96 143
37.98 132
38 127
38.02 140
38.04 127
38.06 136
38.08 114
38.1 110
38.12 129
38.14 110
38.16 129
38.18 146
38.2 128
38.22 132
38.24 129
38.26 109
38.28 112
38.3 109
38.32 103
38.34 123
38.36 125
38.38 144
38.4 131
38.42 184
38.44 168
38.46 162
38.48 208
38.5 171
38.52 216
38.54 230
38.56 188
38.58 224
38.6 230
38.62 195
38.64 175
38.66 151
38.68 153
38.7 147
38.72 141
38.74 125
38.76 112
38.78 121
38.8 117
38.82 122
38.84 128
38.86 114
38.88 137
38.9 116
38.92 132
38.94 119
38.96 148
38.98 125
39 121
39.02 133
39.04 121
39.06 116
39.08 121
39.1 108
39.12 111
39.14 113
39.16 94
39.18 114
39.2 133
39.22 104
39.24 115
39.26 119
39.28 133
39.3 120
39.32 137
39.34 136
39.36 143
39.38 143
39.4 158
39.42 165
39.44 157
39.46 151
39.48 178
39.5 161
39.52 165
39.54 163
39.56 164
39.58 163
39.6 168
39.62 155
39.64 141
39.66 137
39.68 155
39.7 150
39.72 149
39.74 137
39.76 146
39.78 153
39.8 151
39.82 151
39.84 143
39.86 173
39.88 144
39.9 163
39.92 136
39.94 130
39.96 155
39.98 130
40 175
40.02 152
40.04 142
40.06 164
40.08 193
40.1 183
40.12 220
40.14 226
40.16 226
40.18 246
40.2 290
40.22 309
40.24 386
40.26 369
40.28 455
40.3 426
40.32 503
40.34 454
40.36 490
40.38 526
40.4 443
40.42 491
40.44 477
40.46 375
40.48 412
40.5 374
40.52 346
40.54 328
40.56 326
40.58 284
40.6 293
40.62 246
40.64 291
40.66 237
40.68 297
40.7 306
40.72 293
40.74 324
40.76 352
40.78 371
40.8 416
40.82 415
40.84 394
40.86 443
40.88 424
40.9 437
40.92 452
40.94 413
40.96 465
40.98 386
41 425
41.02 381
41.04 383
41.06 347
41.08 352
41.1 343
41.12 312
41.14 281
41.16 269
41.18 272
41.2 283
41.22 244
41.24 245
41.26 255
41.28 238
41.3 236
41.32 246
41.34 213
41.36 239
41.38 219
41.4 229
41.42 204
41.44 215
41.46 199
41.48 183
41.5 171
41.52 196
41.54 161
41.56 165
41.58 168
41.6 171
41.62 161
41.64 169
41.66 150
41.68 166
41.7 149
41.72 143
41.74 167
41.76 161
41.78 173
41.8 138
41.82 135
41.84 147
41.86 131
41.88 157
41.9 166
41.92 156
41.94 164
41.96 159
41.98 143
42 161
42.02 148
42.04 159
42.06 156
42.08 193
42.1 166
42.12 151
42.14 160
42.16 175
42.18 155
42.2 168
42.22 154
42.24 155
42.26 175
42.28 163
42.3 158
42.32 168
42.34 163
42.36 164
42.38 191
42.4 196
42.42 207
42.44 205
42.46 246
42.48 242
42.5 279
42.52 330
42.54 337
42.56 346
42.58 461
42.6 471
42.62 557
42.64 568
42.66 648
42.68 592
42.7 587
42.72 564
42.74 456
42.76 411
42.78 376
42.8 286
42.82 240
42.84 272
42.86 235
42.88 199
42.9 186
42.92 190
42.94 198
42.96 163
42.98 184
43 177
43.02 171
43.04 138
43.06 168
43.08 157
43.1 151
43.12 158
43.14 163
43.16 164
43.18 150
43.2 145
43.22 146
43.24 160
43.26 156
43.28 166
43.3 178
43.32 140
43.34 167
43.36 136
43.38 131
43.4 150
43.42 128
43.44 146
43.46 149
43.48 139
43.5 152
43.52 159
43.54 136
43.56 152
43.58 142
43.6 150
43.62 162
43.64 160
43.66 169
43.68 174
43.7 177
43.72 196
43.74 163
43.76 168
43.78 190
43.8 194
43.82 184
43.84 155
43.86 173
43.88 203
43.9 189
43.92 202
43.94 212
43.96 207
43.98 184
44 227
44.02 188
44.04 225
44.06 233
44.08 214
44.1 215
44.12 220
44.14 221
44.16 220
44.18 206
44.2 229
44.22 209
44.24 196
44.26 186
44.28 175
44.3 182
44.32 188
44.34 202
44.36 207
44.38 174
44.4 194
44.42 175
44.44 155
44.46 142
44.48 150
44.5 148
44.52 150
44.54 152
44.56 142
44.58 147
44.6 142
44.62 124
44.64 117
44.66 110
44.68 120
44.7 109
44.72 140
44.74 112
44.76 127
44.78 122
44.8 117
44.82 126
44.84 138
44.86 155
44.88 149
44.9 119
44.92 149
44.94 149
44.96 142
44.98 155
45 151
45.02 144
45.04 144
45.06 140
45.08 132
45.1 124
45.12 124
45.14 116
45.16 120
45.18 121
45.2 131
45.22 121
45.24 121
45.26 130
45.28 117
45.3 98
45.32 113
45.34 114
45.36 114
45.38 113
45.4 126
45.42 114
45.44 106
45.46 118
45.48 121
45.5 125
45.52 124
45.54 107
45.56 121
45.58 121
45.6 131
45.62 128
45.64 135
45.66 127
45.68 144
45.7 148
45.72 143
45.74 135
45.76 161
45.78 149
45.8 150
45.82 160
45.84 162
45.86 168
45.88 175
45.9 202
45.92 170
45.94 180
45.96 208
45.98 232
46 267
46.02 306
46.04 362
46.06 410
46.08 481
46.1 546
46.12 555
46.14 547
46.16 541
46.18 481
46.2 404
46.22 364
46.24 337
46.26 302
46.28 229
46.3 206
46.32 206
46.34 200
46.36 169
46.38 154
46.4 152
46.42 162
46.44 133
46.46 140
46.48 149
46.5 136
46.52 147
46.54 145
46.56 135
46.58 132
46.6 120
46.62 107
46.64 121
46.66 118
46.68 143
46.7 107
46.72 129
46.74 134
46.76 145
46.78 120
46.8 131
46.82 131
46.84 148
46.86 129
46.88 154
46.9 139
46.92 166
46.94 162
46.96 170
46.98 194
47 220
47.02 254
47.04 241
47.06 290
47.08 341
47.1 328
47.12 318
47.14 268
47.16 307
47.18 259
47.2 227
47.22 220
47.24 201
47.26 151
47.28 179
47.3 152
47.32 143
47.34 129
47.36 115
47.38 116
47.4 116
47.42 136
47.44 112
47.46 143
47.48 127
47.5 119
47.52 118
47.54 102
47.56 126
47.58 110
47.6 116
47.62 100
47.64 99
47.66 124
47.68 119
47.7 147
47.72 119
47.74 129
47.76 121
47.78 132
47.8 123
47.82 124
47.84 120
47.86 116
47.88 119
47.9 120
47.92 117
47.94 125
47.96 116
47.98 114
48 116
48.02 106
48.04 116
48.06 120
48.08 122
48.1 104
48.12 97
48.14 129
48.16 118
48.18 105
48.2 152
48.22 113
48.24 127
48.26 120
48.28 118
48.3 125
48.32 135
48.34 140
48.36 104
48.38 125
48.4 110
48.42 101
48.44 104
48.46 119
48.48 117
48.5 96
48.52 114
48.54 120
48.56 79
48.58 120
48.6 106
48.62 116
48.64 126
48.66 117
48.68 128
48.7 126
48.72 124
48.74 121
48.76 133
48.78 127
48.8 144
48.82 136
48.84 168
48.86 163
48.88 145
48.9 133
48.92 133
48.94 138
48.96 143
48.98 126
49 125
49.02 133
49.04 168
49.06 150
49.08 138
49.1 151
49.12 126
49.14 138
49.16 110
49.18 143
49.2 131
49.22 136
49.24 142
49.26 139
49.28 131
49.3 141
49.32 148
49.34 154
49.36 163
49.38 143
49.4 140
49.42 182
49.44 162
49.46 156
49.48 177
49.5 189
49.52 201
49.54 247
49.56 256
49.58 306
49.6 361
49.62 382
49.64 440
49.66 444
49.68 433
49.7 438
49.72 381
49.74 361
49.76 352
49.78 306
49.8 294
49.82 259
49.84 250
49.86 179
49.88 176
49.9 160
49.92 129
49.94 178
49.96 169
49.98 180
50 153
50.02 154
50.04 163
50.06 170
50.08 142
50.1 177
50.12 148
50.14 167
50.16 144
50.18 181
50.2 139
50.22 148
50.24 142
50.26 144
50.28 151
50.3 149
50.32 157
50.34 133
50.36 133
50.38 143
50.4 121
50.42 124
50.44 102
50.46 117
50.48 131
50.5 114
50.52 136
50.54 117
50.56 145
50.58 135
50.6 128
50.62 168
50.64 142
50.66 158
50.68 147
50.7 152
50.72 141
50.74 144
50.76 155
50.78 164
50.8 155
50.82 142
50.84 142
50.86 150
50.88 145
50.9 129
50.92 132
50.94 133
50.96 122
50.98 106
51 124
51.02 98
51.04 111
51.06 113
51.08 110
51.1 98
51.12 125
51.14 93
51.16 102
51.18 96
51.2 109
51.22 109
51.24 101
51.26 111
51.28 104
51.3 117
51.32 99
51.34 104
51.36 108
51.38 106
51.4 98
51.42 92
51.44 113
51.46 108
51.48 107
51.5 108
51.52 90
51.54 123
51.56 113
51.58 111
51.6 108
51.62 112
51.64 120
51.66 115
51.68 104
51.7 120
51.72 111
51.74 118
51.76 101
51.78 127
51.8 116
51.82 104
51.84 117
51.86 110
51.88 120
51.9 94
51.92 110
51.94 114
51.96 91
51.98 97
52 90
52.02 90
52.04 97
52.06 91
52.08 84
52.1 93
52.12 86
52.14 91
52.16 90
52.18 100
52.2 97
52.22 83
52.24 103
52.26 106
52.28 91
52.3 106
52.32 84
52.34 98
52.36 89
52.38 106
52.4 90
52.42 105
52.44 116
52.46 122
52.48 108
52.5 127
52.52 127
52.54 122
52.56 130
52.58 125
52.6 107
52.62 127
52.64 123
52.66 114
52.68 113
52.7 103
52.72 117
52.74 128
52.76 134
52.78 144
52.8 111
52.82 118
52.84 140
52.86 104
52.88 116
52.9 124
52.92 122
52.94 117
52.96 144
52.98 114
53 108
53.02 126
53.04 128
53.06 115
53.08 136
53.1 139
53.12 143
53.14 122
53.16 123
53.18 130
53.2 144
53.22 155
53.24 146
53.26 155
53.28 166
53.3 128
53.32 171
53.34 136
53.36 132
53.38 127
53.4 146
53.42 135
53.44 135
53.46 135
53.48 151
53.5 163
53.52 158
53.54 180
53.56 170
53.58 202
53.6 247
53.62 255
53.64 271
53.66 311
53.68 312
53.7 288
53.72 273
53.74 260
53.76 230
53.78 224
53.8 189
53.82 189
53.84 185
53.86 149
53.88 148
53.9 145
53.92 123
53.94 126
53.96 137
53.98 115
54 149
54.02 106
54.04 119
54.06 119
54.08 114
54.1 116
54.12 105
54.14 116
54.16 111
54.18 93
54.2 98
54.22 93
54.24 96
54.26 91
54.28 92
54.3 87
54.32 101
54.34 91
54.36 92
54.38 98
54.4 101
54.42 94
54.44 90
54.46 90
54.48 87
54.5 105
54.52 86
54.54 87
54.56 88
54.58 102
54.6 72
54.62 74
54.64 97
54.66 104
54.68 112
54.7 95
54.72 95
54.74 87
54.76 85
54.78 106
54.8 103
54.82 108
54.84 85
54.86 99
54.88 67
54.9 109
54.92 118
54.94 90
54.96 104
54.98 84
55 91
55.02 89
55.04 96
55.06 100
55.08 108
55.1 82
55.12 85
55.14 96
55.16 99
55.18 94
55.2 74
55.22 68
55.24 77
55.26 91
55.28 85
55.3 64
55.32 76
55.34 90
55.36 68
55.38 75
55.4 100
55.42 86
55.44 101
55.46 99
55.48 83
55.5 81
55.52 109
55.54 82
55.56 76
55.58 93
55.6 96
55.62 75
55.64 108
55.66 97
55.68 82
55.7 75
55.72 98
55.74 105
55.76 101
55.78 105
55.8 86
55.82 84
55.84 77
55.86 78
55.88 89
55.9 78
55.92 101
55.94 81
55.96 84
55.98 84
56 93
56.02 84
56.04 72
56.06 83
56.08 66
56.1 81
56.12 98
56.14 87
56.16 84
56.18 88
56.2 96
56.22 85
56.24 82
56.26 83
56.28 89
56.3 90
56.32 86
56.34 98
56.36 90
56.38 70
56.4 94
56.42 83
56.44 105
56.46 94
56.48 89
56.5 97
56.52 107
56.54 99
56.56 79
56.58 99
56.6 109
56.62 122
56.64 123
56.66 120
56.68 154
56.7 137
56.72 122
56.74 131
56.76 127
56.78 152
56.8 126
56.82 156
56.84 124
56.86 127
56.88 113
56.9 125
56.92 121
56.94 123
56.96 114
56.98 113
57 94
57.02 116
57.04 129
57.06 94
57.08 100
57.1 109
57.12 106
57.14 99
57.16 105
57.18 97
57.2 115
57.22 110
57.24 116
57.26 105
57.28 120
57.3 118
57.32 122
57.34 115
57.36 122
57.38 115
57.4 104
57.42 94
57.44 110
57.46 96
57.48 88
57.5 86
57.52 102
57.54 97
57.56 105
57.58 95
57.6 88
57.62 81
57.64 110
57.66 122
57.68 121
57.7 103
57.72 99
57.74 118
57.76 132
57.78 132
57.8 119
57.82 133
57.84 115
57.86 142
57.88 107
57.9 91
57.92 108
57.94 115
57.96 116
57.98 109
58 109
58.02 99
58.04 113
58.06 101
58.08 108
58.1 93
58.12 93
58.14 96
58.16 94
58.18 83
58.2 88
58.22 96
58.24 130
58.26 105
58.28 96
58.3 103
58.32 94
58.34 121
58.36 106
58.38 120
58.4 129
58.42 142
58.44 116
58.46 156
58.48 148
58.5 155
58.52 140
58.54 187
58.56 177
58.58 181
58.6 197
58.62 178
58.64 159
58.66 200
58.68 208
58.7 223
58.72 218
58.74 269
58.76 288
58.78 335
58.8 420
58.82 486
58.84 584
58.86 656
58.88 722
58.9 755
58.92 734
58.94 709
58.96 630
58.98 565
59 533
59.02 479
59.04 428
59.06 369
59.08 331
59.1 260
59.12 204
59.14 179
59.16 141
59.18 111
59.2 122
59.22 111
59.24 105
59.26 102
59.28 115
59.3 88
59.32 108
59.34 106
59.36 111
59.38 123
59.4 107
59.42 109
59.44 114
59.46 121
59.48 131
59.5 118
59.52 116
59.54 129
59.56 143
59.58 128
59.6 139
59.62 127
59.64 128
59.66 147
59.68 129
59.7 114
59.72 111
59.74 108
59.76 105
59.78 110
59.8 135
59.82 87
59.84 99
59.86 86
59.88 93
59.9 121
59.92 87
59.94 105
59.96 72
59.98 77
60 87
60.02 85
60.04 94
60.06 85
60.08 84
60.1 86
60.12 95
60.14 109
60.16 111
60.18 90
60.2 91
60.22 98
60.24 104
60.26 129
60.28 113
60.3 121
60.32 121
60.34 127
60.36 127
60.38 113
60.4 129
60.42 123
60.44 124
60.46 128
60.48 110
60.5 114
60.52 116
60.54 125
60.56 114
60.58 96
60.6 81
60.62 107
60.64 79
60.66 85
60.68 87
60.7 74
60.72 84
60.74 94
60.76 90
60.78 74
60.8 76
60.82 65
60.84 75
60.86 78
60.88 59
60.9 83
60.92 81
60.94 75
60.96 67
60.98 68
61 78
61.02 62
61.04 83
61.06 95
61.08 75
61.1 67
61.12 79
61.14 88
61.16 87
61.18 63
61.2 69
61.22 84
61.24 77
61.26 75
61.28 86
61.3 73
61.32 92
61.34 97
61.36 103
61.38 101
61.4 111
61.42 98
61.44 96
61.46 98
61.48 105
61.5 111
61.52 113
61.54 92
61.56 104
61.58 101
61.6 94
61.62 109
61.64 100
61.66 105
61.68 117
61.7 124
61.72 123
61.74 120
61.76 129
61.78 136
61.8 128
61.82 126
61.84 113
61.86 111
61.88 103
61.9 117
61.92 120
61.94 96
61.96 122
61.98 124
62 104
62.02 111
62.04 109
62.06 111
62.08 106
62.1 90
62.12 112
62.14 101
62.16 101
62.18 103
62.2 109
62.22 104
62.24 120
62.26 95
62.28 109
62.3 124
62.32 123
62.34 90
62.36 119
62.38 110
62.4 95
62.42 133
62.44 123
62.46 105
62.48 101
62.5 105
62.52 115
62.54 119
62.56 109
62.58 114
62.6 124
62.62 123
62.64 118
62.66 123
62.68 99
62.7 114
62.72 95
62.74 105
62.76 108
62.78 95
62.8 119
62.82 110
62.84 95
62.86 76
62.88 98
62.9 101
62.92 102
62.94 85
62.96 93
62.98 106
63 89
63.02 78
63.04 98
63.06 92
63.08 93
63.1 95
63.12 102
63.14 95
63.16 91
63.18 83
63.2 96
63.22 105
63.24 90
63.26 95
63.28 88
63.3 91
63.32 96
63.34 109
63.36 91
63.38 109
63.4 108
63.42 94
63.44 108
63.46 116
63.48 97
63.5 99
63.52 116
63.54 88
63.56 122
63.58 127
63.6 98
63.62 113
63.64 106
63.66 104
63.68 114
63.7 97
63.72 113
63.74 104
63.76 104
63.78 116
63.8 108
63.82 110
63.84 121
63.86 114
63.88 118
63.9 90
63.92 98
63.94 136
63.96 113
63.98 130
64 121
64.02 124
64.04 103
64.06 111
64.08 108
64.1 112
64.12 113
64.14 112
64.16 144
64.18 112
64.2 102
64.22 107
64.24 108
64.26 121
64.28 112
64.3 99
64.32 120
64.34 102
64.36 115
64.38 132
64.4 138
64.42 122
64.44 119
64.46 124
64.48 170
64.5 144
64.52 172
64.54 225
64.56 240
64.58 280
64.6 288
64.62 313
64.64 315
64.66 289
64.68 294
64.7 252
64.72 249
64.74 210
64.76 234
64.78 221
64.8 188
64.82 202
64.84 163
64.86 171
64.88 160
64.9 147
64.92 170
64.94 113
64.96 139
64.98 114
65 130
65.02 107
65.04 151
65.06 157
65.08 137
65.1 155
65.12 177
65.14 188
65.16 182
65.18 171
65.2 193
65.22 197
65.24 199
65.26 180
65.28 155
65.3 180
65.32 169
65.34 151
65.36 157
65.38 144
65.4 139
65.42 141
65.44 123
65.46 131
65.48 123
65.5 117
65.52 123
65.54 113
65.56 109
65.58 102
65.6 120
65.62 115
65.64 97
65.66 98
65.68 117
65.7 118
65.72 143
65.74 112
65.76 151
65.78 122
65.8 126
65.82 142
65.84 137
65.86 141
65.88 151
65.9 137
65.92 137
65.94 140
65.96 136
65.98 126
66 138
66.02 123
66.04 124
66.06 143
66.08 128
66.1 117
66.12 123
66.14 99
66.16 104
66.18 114
66.2 99
66.22 111
66.24 117
66.26 98
66.28 99
66.3 109
66.32 105
66.34 100
66.36 112
66.38 122
66.4 101
66.42 87
66.44 102
66.46 96
66.48 91
66.5 95
66.52 94
66.54 100
66.56 97
66.58 95
66.6 113
66.62 98
66.64 117
66.66 102
66.68 91
66.7 79
66.72 86
66.74 88
66.76 108
66.78 114
66.8 78
66.82 119
66.84 93
66.86 108
66.88 117
66.9 98
66.92 94
66.94 116
66.96 94
66.98 82
67 102
67.02 71
67.04 95
67.06 104
67.08 93
67.1 109
67.12 93
67.14 108
67.16 94
67.18 96
67.2 95
67.22 104
67.24 116
67.26 121
67.28 104
67.3 93
67.32 128
67.34 98
67.36 104
67.38 119
67.4 105
67.42 110
67.44 111
67.46 112
67.48 116
67.5 126
67.52 128
67.54 133
67.56 161
67.58 133
67.6 148
67.62 144
67.64 169
67.66 155
67.68 135
67.7 173
67.72 177
67.74 166
67.76 169
67.78 157
67.8 160
67.82 171
67.84 164
67.86 163
67.88 148
67.9 147
67.92 157
67.94 158
67.96 135
67.98 162
68 147
68.02 119
68.04 132
68.06 138
68.08 98
68.1 132
68.12 112
68.14 105
68.16 104
68.18 135
68.2 109
68.22 99
68.24 96
68.26 98
68.28 91
68.3 110
68.32 96
68.34 100
68.36 95
68.38 123
68.4 103
68.42 80
68.44 99
68.46 120
68.48 74
68.5 116
68.52 104
68.54 106
68.56 105
68.58 111
68.6 101
68.62 110
68.64 111
68.66 105
68.68 96
68.7 78
68.72 99
68.74 84
68.76 77
68.78 95
68.8 90
68.82 83
68.84 85
68.86 89
68.88 93
68.9 83
68.92 72
68.94 96
68.96 85
68.98 85
69 105
69.02 106
69.04 82
69.06 95
69.08 95
69.1 87
69.12 84
69.14 92
69.16 99
69.18 100
69.2 105
69.22 107
69.24 100
69.26 96
69.28 91
69.3 107
69.32 85
69.34 101
69.36 90
69.38 100
69.4 103
69.42 90
69.44 94
69.46 100
69.48 104
69.5 82
69.52 90
69.54 100
69.56 87
69.58 99
69.6 84
69.62 72
69.64 89
69.66 81
69.68 90
69.7 88
69.72 94
69.74 89
69.76 87
69.78 86
69.8 85
69.82 90
69.84 83
69.86 77
69.88 81
69.9 90
69.92 107
69.94 85
69.96 89
69.98 78
70 89
70.02 91
70.04 87
70.06 101
70.08 99
70.1 111
70.12 99
70.14 93
70.16 104
70.18 86
70.2 121
70.22 109
70.24 97
70.26 128
70.28 103
70.3 123
70.32 132
70.34 119
70.36 125
70.38 119
70.4 140
70.42 143
70.44 141
70.46 144
70.48 162
70.5 173
70.52 178
70.54 173
70.56 180
70.58 170
70.6 169
70.62 191
70.64 174
70.66 206
70.68 224
70.7 229
70.72 234
70.74 268
70.76 322
70.78 320
70.8 380
70.82 473
70.84 550
70.86 487
70.88 536
70.9 507
70.92 462
70.94 445
70.96 440
70.98 382
71 423
71.02 353
71.04 365
71.06 359
71.08 333
71.1 306
71.12 252
71.14 200
71.16 205
71.18 201
71.2 162
71.22 162
71.24 171
71.26 156
71.28 143
71.3 135
71.32 162
71.34 147
71.36 139
71.38 123
71.4 128
71.42 123
71.44 119
71.46 119
71.48 112
71.5 120
71.52 147
71.54 126
71.56 117
71.58 105
71.6 140
71.62 128
71.64 119
71.66 135
71.68 115
71.7 123
71.72 105
71.74 109
71.76 115
71.78 110
71.8 133
71.82 94
71.84 111
71.86 106
71.88 123
71.9 117
71.92 133
71.94 121
71.96 125
71.98 120
72 130
72.02 105
72.04 112
72.06 120
72.08 87
72.1 114
72.12 106
72.14 108
72.16 109
72.18 105
72.2 110
72.22 104
72.24 104
72.26 99
72.28 105
72.3 110
72.32 108
72.34 93
72.36 91
72.38 99
72.4 100
72.42 93
72.44 93
72.46 127
72.48 96
72.5 116
72.52 103
72.54 100
72.56 91
72.58 104
72.6 99
72.62 110
72.64 99
72.66 89
72.68 103
72.7 105
72.72 113
72.74 108
72.76 98
72.78 110
72.8 132
72.82 131
72.84 144
72.86 114
72.88 150
72.9 136
72.92 144
72.94 136
72.96 155
72.98 134
73 178
73.02 150
73.04 163
73.06 182
73.08 149
73.1 156
73.12 177
73.14 175
73.16 171
73.18 176
73.2 164
73.22 161
73.24 177
73.26 162
73.28 157
73.3 156
73.32 167
73.34 141
73.36 151
73.38 155
73.4 139
73.42 120
73.44 126
73.46 128
73.48 97
73.5 115
73.52 98
73.54 124
73.56 131
73.58 116
73.6 127
73.62 104
73.64 116
73.66 108
73.68 91
73.7 115
73.72 101
73.74 93
73.76 117
73.78 109
73.8 92
73.82 89
73.84 96
73.86 112
73.88 66
73.9 93
73.92 95
73.94 95
73.96 85
73.98 108
74 96
74.02 84
74.04 102
74.06 101
74.08 105
74.1 91
74.12 92
74.14 100
74.16 108
74.18 80
74.2 94
74.22 97
74.24 73
74.26 111
74.28 82
74.3 73
74.32 81
74.34 84
74.36 88
74.38 91
74.4 99
74.42 78
74.44 92
74.46 95
74.48 85
74.5 102
74.52 94
74.54 90
74.56 81
74.58 92
74.6 83
74.62 87
74.64 103
74.66 88
74.68 79
74.7 94
74.72 96
74.74 86
74.76 91
74.78 95
74.8 88
74.82 106
74.84 95
74.86 94
74.88 90
74.9 90
74.92 82
74.94 94
74.96 95
74.98 91
75 104
