2.00000 2169.000
2.02000 2021.000
2.04000 1929.000
2.06000 1823.000
2.08000 1757.000
2.10000 1673.000
2.12000 1542.000
2.14000 1496.000
2.16000 1396.000
2.18000 1394.000
2.20000 1444.000
2.22000 1283.000
2.24000 1349.000
2.26000 1301.000
2.28000 1264.000
2.30000 1308.000
2.32000 1296.000
2.34000 1201.000
2.36000 1218.000
2.38000 1206.000
2.40000 1228.000
2.42000 1186.000
2.44000 1135.000
2.46000 1116.000
2.48000 1105.000
2.50000 1115.000
2.52000 1137.000
2.54000 1104.000
2.56000 1055.000
2.58000 1113.000
2.60000 1029.000
2.62000 1057.000
2.64000 1034.000
2.66000 1043.000
2.68000 1042.000
2.70000 1016.000
2.72000 944.000
2.74000 1004.000
2.76000 933.000
2.78000 999.000
2.80000 957.000
2.82000 994.000
2.84000 900.000
2.86000 920.000
2.88000 919.000
2.90000 886.000
2.92000 905.000
2.94000 899.000
2.96000 923.000
2.98000 849.000
3.00000 824.000
3.02000 838.000
3.04000 827.000
3.06000 791.000
3.08000 832.000
3.10000 827.000
3.12000 779.000
3.14000 805.000
3.16000 754.000
3.18000 770.000
3.20000 774.000
3.22000 806.000
3.24000 821.000
3.26000 722.000
3.28000 804.000
3.30000 788.000
3.32000 746.000
3.34000 763.000
3.36000 735.000
3.38000 708.000
3.40000 723.000
3.42000 711.000
3.44000 750.000
3.46000 769.000
3.48000 761.000
3.50000 655.000
3.52000 750.000
3.54000 705.000
3.56000 693.000
3.58000 685.000
3.60000 657.000
3.62000 655.000
3.64000 667.000
3.66000 665.000
3.68000 680.000
3.70000 651.000
3.72000 630.000
3.74000 663.000
3.76000 660.000
3.78000 600.000
3.80000 603.000
3.82000 638.000
3.84000 654.000
3.86000 647.000
3.88000 645.000
3.90000 602.000
3.92000 624.000
3.94000 578.000
3.96000 590.000
3.98000 599.000
4.00000 579.000
4.02000 589.000
4.04000 604.000
4.06000 584.000
4.08000 583.000
4.10000 562.000
4.12000 528.000
4.14000 567.000
4.16000 553.000
4.18000 555.000
4.20000 547.000
4.22000 544.000
4.24000 494.000
4.26000 545.000
4.28000 559.000
4.30000 532.000
4.32000 576.000
4.34000 488.000
4.36000 523.000
4.38000 558.000
4.40000 508.000
4.42000 527.000
4.44000 556.000
4.46000 485.000
4.48000 512.000
4.50000 548.000
4.52000 498.000
4.54000 518.000
4.56000 503.000
4.58000 499.000
4.60000 511.000
4.62000 471.000
4.64000 522.000
4.66000 493.000
4.68000 501.000
4.70000 543.000
4.72000 484.000
4.74000 506.000
4.76000 492.000
4.78000 465.000
4.80000 459.000
4.82000 474.000
4.84000 474.000
4.86000 447.000
4.88000 478.000
4.90000 460.000
4.92000 500.000
4.94000 472.000
4.96000 452.000
4.98000 441.000
5.00000 454.000
5.02000 449.000
5.04000 459.000
5.06000 421.000
5.08000 430.000
5.10000 418.000
5.12000 406.000
5.14000 398.000
5.16000 473.000
5.18000 435.000
5.20000 413.000
5.22000 430.000
5.24000 407.000
5.26000 394.000
5.28000 414.000
5.30000 432.000
5.32000 401.000
5.34000 444.000
5.36000 401.000
5.38000 418.000
5.40000 423.000
5.42000 418.000
5.44000 357.000
5.46000 376.000
5.48000 411.000
5.50000 398.000
5.52000 413.000
5.54000 382.000
5.56000 390.000
5.58000 423.000
5.60000 394.000
5.62000 370.000
5.64000 411.000
5.66000 405.000
5.68000 368.000
5.70000 415.000
5.72000 392.000
5.74000 390.000
5.76000 375.000
5.78000 382.000
5.80000 360.000
5.82000 390.000
5.84000 396.000
5.86000 343.000
5.88000 350.000
5.90000 355.000
5.92000 359.000
5.94000 360.000
5.96000 359.000
5.98000 351.000
6.00000 350.000
6.02000 346.000
6.04000 362.000
6.06000 381.000
6.08000 361.000
6.10000 330.000
6.12000 347.000
6.14000 347.000
6.16000 348.000
6.18000 386.000
6.20000 344.000
6.22000 314.000
6.24000 332.000
6.26000 358.000
6.28000 351.000
6.30000 363.000
6.32000 339.000
6.34000 362.000
6.36000 335.000
6.38000 339.000
6.40000 317.000
6.42000 341.000
6.44000 371.000
6.46000 321.000
6.48000 261.000
6.50000 340.000
6.52000 332.000
6.54000 294.000
6.56000 339.000
6.58000 326.000
6.60000 330.000
6.62000 327.000
6.64000 333.000
6.66000 309.000
6.68000 354.000
6.70000 346.000
6.72000 315.000
6.74000 327.000
6.76000 306.000
6.78000 334.000
6.80000 333.000
6.82000 312.000
6.84000 298.000
6.86000 329.000
6.88000 329.000
6.90000 305.000
6.92000 321.000
6.94000 289.000
6.96000 315.000
6.98000 306.000
7.00000 282.000
7.02000 322.000
7.04000 327.000
7.06000 302.000
7.08000 358.000
7.10000 298.000
7.12000 298.000
7.14000 294.000
7.16000 292.000
7.18000 308.000
7.20000 346.000
7.22000 299.000
7.24000 280.000
7.26000 271.000
7.28000 291.000
7.30000 320.000
7.32000 298.000
7.34000 283.000
7.36000 302.000
7.38000 289.000
7.40000 316.000
7.42000 272.000
7.44000 307.000
7.46000 301.000
7.48000 289.000
7.50000 293.000
7.52000 290.000
7.54000 320.000
7.56000 303.000
7.58000 315.000
7.60000 300.000
7.62000 266.000
7.64000 277.000
7.66000 292.000
7.68000 313.000
7.70000 289.000
7.72000 258.000
7.74000 293.000
7.76000 282.000
7.78000 260.000
7.80000 280.000
7.82000 244.000
7.84000 258.000
7.86000 244.000
7.88000 287.000
7.90000 271.000
7.92000 267.000
7.94000 271.000
7.96000 259.000
7.98000 275.000
8.00000 275.000
8.02000 283.000
8.04000 279.000
8.06000 274.000
8.08000 258.000
8.10000 255.000
8.12000 279.000
8.14000 270.000
8.16000 260.000
8.18000 280.000
8.20000 268.000
8.22000 261.000
8.24000 271.000
8.26000 251.000
8.28000 233.000
8.30000 231.000
8.32000 248.000
8.34000 264.000
8.36000 231.000
8.38000 256.000
8.40000 257.000
8.42000 245.000
8.44000 240.000
8.46000 266.000
8.48000 277.000
8.50000 261.000
8.52000 213.000
8.54000 250.000
8.56000 242.000
8.58000 242.000
8.60000 256.000
8.62000 250.000
8.64000 242.000
8.66000 238.000
8.68000 229.000
8.70000 228.000
8.72000 242.000
8.74000 221.000
8.76000 232.000
8.78000 244.000
8.80000 223.000
8.82000 224.000
8.84000 212.000
8.86000 244.000
8.88000 218.000
8.90000 244.000
8.92000 209.000
8.94000 232.000
8.96000 207.000
8.98000 225.000
9.00000 216.000
9.02000 227.000
9.04000 254.000
9.06000 212.000
9.08000 218.000
9.10000 239.000
9.12000 231.000
9.14000 249.000
9.16000 217.000
9.18000 228.000
9.20000 228.000
9.22000 219.000
9.24000 223.000
9.26000 201.000
9.28000 218.000
9.30000 208.000
9.32000 217.000
9.34000 182.000
9.36000 199.000
9.38000 210.000
9.40000 203.000
9.42000 214.000
9.44000 191.000
9.46000 206.000
9.48000 203.000
9.50000 205.000
9.52000 209.000
9.54000 202.000
9.56000 206.000
9.58000 227.000
9.60000 229.000
9.62000 210.000
9.64000 222.000
9.66000 215.000
9.68000 200.000
9.70000 187.000
9.72000 204.000
9.74000 212.000
9.76000 220.000
9.78000 228.000
9.80000 236.000
9.82000 203.000
9.84000 213.000
9.86000 211.000
9.88000 225.000
9.90000 202.000
9.92000 221.000
9.94000 228.000
9.96000 228.000
9.98000 215.000
10.00000 202.000
10.02000 206.000
10.04000 198.000
10.06000 206.000
10.08000 204.000
10.10000 195.000
10.12000 209.000
10.14000 248.000
10.16000 215.000
10.18000 216.000
10.20000 203.000
10.22000 198.000
10.24000 199.000
10.26000 211.000
10.28000 188.000
10.30000 222.000
10.32000 197.000
10.34000 209.000
10.36000 208.000
10.38000 203.000
10.40000 192.000
10.42000 203.000
10.44000 198.000
10.46000 192.000
10.48000 162.000
10.50000 199.000
10.52000 201.000
10.54000 200.000
10.56000 173.000
10.58000 195.000
10.60000 174.000
10.62000 189.000
10.64000 177.000
10.66000 181.000
10.68000 192.000
10.70000 194.000
10.72000 186.000
10.74000 198.000
10.76000 187.000
10.78000 169.000
10.80000 176.000
10.82000 183.000
10.84000 196.000
10.86000 212.000
10.88000 168.000
10.90000 179.000
10.92000 152.000
10.94000 201.000
10.96000 204.000
10.98000 147.000
11.00000 167.000
11.02000 185.000
11.04000 176.000
11.06000 199.000
11.08000 191.000
11.10000 177.000
11.12000 170.000
11.14000 177.000
11.16000 175.000
11.18000 177.000
11.20000 199.000
11.22000 183.000
11.24000 177.000
11.26000 199.000
11.28000 184.000
11.30000 205.000
11.32000 183.000
11.34000 168.000
11.36000 193.000
11.38000 186.000
11.40000 177.000
11.42000 166.000
11.44000 176.000
11.46000 186.000
11.48000 182.000
11.50000 192.000
11.52000 183.000
11.54000 184.000
11.56000 173.000
11.58000 177.000
11.60000 177.000
11.62000 190.000
11.64000 196.000
11.66000 173.000
11.68000 175.000
11.70000 179.000
11.72000 173.000
11.74000 179.000
11.76000 153.000
11.78000 171.000
11.80000 177.000
11.82000 167.000
11.84000 178.000
11.86000 192.000
11.88000 198.000
11.90000 157.000
11.92000 173.000
11.94000 185.000
11.96000 174.000
11.98000 174.000
12.00000 188.000
12.02000 190.000
12.04000 183.000
12.06000 186.000
12.08000 206.000
12.10000 212.000
12.12000 212.000
12.14000 198.000
12.16000 176.000
12.18000 198.000
12.20000 170.000
12.22000 168.000
12.24000 161.000
12.26000 160.000
12.28000 174.000
12.30000 184.000
12.32000 150.000
12.34000 179.000
12.36000 169.000
12.38000 177.000
12.40000 164.000
12.42000 187.000
12.44000 171.000
12.46000 178.000
12.48000 174.000
12.50000 164.000
12.52000 134.000
12.54000 160.000
12.56000 215.000
12.58000 179.000
12.60000 167.000
12.62000 170.000
12.64000 155.000
12.66000 157.000
12.68000 144.000
12.70000 135.000
12.72000 170.000
12.74000 168.000
12.76000 162.000
12.78000 158.000
12.80000 165.000
12.82000 149.000
12.84000 145.000
12.86000 156.000
12.88000 170.000
12.90000 147.000
12.92000 161.000
12.94000 167.000
12.96000 167.000
12.98000 160.000
13.00000 155.000
13.02000 141.000
13.04000 134.000
13.06000 168.000
13.08000 163.000
13.10000 152.000
13.12000 162.000
13.14000 140.000
13.16000 148.000
13.18000 177.000
13.20000 155.000
13.22000 157.000
13.24000 149.000
13.26000 147.000
13.28000 170.000
13.30000 129.000
13.32000 134.000
13.34000 146.000
13.36000 174.000
13.38000 141.000
13.40000 147.000
13.42000 130.000
13.44000 149.000
13.46000 137.000
13.48000 143.000
13.50000 169.000
13.52000 161.000
13.54000 143.000
13.56000 133.000
13.58000 156.000
13.60000 138.000
13.62000 153.000
13.64000 148.000
13.66000 131.000
13.68000 135.000
13.70000 161.000
13.72000 161.000
13.74000 125.000
13.76000 163.000
13.78000 145.000
13.80000 152.000
13.82000 166.000
13.84000 146.000
13.86000 144.000
13.88000 165.000
13.90000 152.000
13.92000 133.000
13.94000 154.000
13.96000 129.000
13.98000 131.000
14.00000 141.000
14.02000 139.000
14.04000 153.000
14.06000 133.000
14.08000 167.000
14.10000 133.000
14.12000 157.000
14.14000 157.000
14.16000 159.000
14.18000 142.000
14.20000 165.000
14.22000 141.000
14.24000 145.000
14.26000 154.000
14.28000 135.000
14.30000 133.000
14.32000 132.000
14.34000 188.000
14.36000 145.000
14.38000 172.000
14.40000 142.000
14.42000 159.000
14.44000 149.000
14.46000 145.000
14.48000 167.000
14.50000 143.000
14.52000 133.000
14.54000 163.000
14.56000 146.000
14.58000 135.000
14.60000 151.000
14.62000 149.000
14.64000 116.000
14.66000 140.000
14.68000 136.000
14.70000 138.000
14.72000 136.000
14.74000 137.000
14.76000 146.000
14.78000 149.000
14.80000 157.000
14.82000 117.000
14.84000 121.000
14.86000 130.000
14.88000 136.000
14.90000 132.000
14.92000 146.000
14.94000 125.000
14.96000 139.000
14.98000 128.000
15.00000 154.000
15.02000 116.000
15.04000 135.000
15.06000 130.000
15.08000 125.000
15.10000 131.000
15.12000 136.000
15.14000 137.000
15.16000 150.000
15.18000 131.000
15.20000 134.000
15.22000 164.000
15.24000 151.000
15.26000 130.000
15.28000 134.000
15.30000 151.000
15.32000 151.000
15.34000 141.000
15.36000 150.000
15.38000 150.000
15.40000 163.000
15.42000 148.000
15.44000 155.000
15.46000 165.000
15.48000 152.000
15.50000 165.000
15.52000 150.000
15.54000 147.000
15.56000 148.000
15.58000 147.000
15.60000 156.000
15.62000 134.000
15.64000 161.000
15.66000 174.000
15.68000 157.000
15.70000 178.000
15.72000 160.000
15.74000 182.000
15.76000 175.000
15.78000 179.000
15.80000 199.000
15.82000 197.000
15.84000 176.000
15.86000 193.000
15.88000 194.000
15.90000 201.000
15.92000 190.000
15.94000 185.000
15.96000 228.000
15.98000 193.000
16.00000 229.000
16.02000 249.000
16.04000 244.000
16.06000 238.000
16.08000 242.000
16.10000 258.000
16.12000 217.000
16.14000 225.000
16.16000 194.000
16.18000 188.000
16.20000 162.000
16.22000 162.000
16.24000 165.000
16.26000 162.000
16.28000 146.000
16.30000 118.000
16.32000 151.000
16.34000 118.000
16.36000 130.000
16.38000 119.000
16.40000 122.000
16.42000 130.000
16.44000 134.000
16.46000 118.000
16.48000 131.000
16.50000 121.000
16.52000 117.000
16.54000 118.000
16.56000 134.000
16.58000 101.000
16.60000 129.000
16.62000 129.000
16.64000 113.000
16.66000 109.000
16.68000 121.000
16.70000 134.000
16.72000 100.000
16.74000 126.000
16.76000 129.000
16.78000 140.000
16.80000 122.000
16.82000 127.000
16.84000 121.000
16.86000 127.000
16.88000 116.000
16.90000 119.000
16.92000 118.000
16.94000 122.000
16.96000 115.000
16.98000 110.000
17.00000 93.000
17.02000 101.000
17.04000 105.000
17.06000 120.000
17.08000 120.000
17.10000 117.000
17.12000 136.000
17.14000 133.000
17.16000 148.000
17.18000 119.000
17.20000 137.000
17.22000 128.000
17.24000 122.000
17.26000 144.000
17.28000 139.000
17.30000 148.000
17.32000 149.000
17.34000 173.000
17.36000 176.000
17.38000 176.000
17.40000 193.000
17.42000 196.000
17.44000 187.000
17.46000 195.000
17.48000 193.000
17.50000 195.000
17.52000 177.000
17.54000 155.000
17.56000 173.000
17.58000 155.000
17.60000 127.000
17.62000 117.000
17.64000 133.000
17.66000 118.000
17.68000 121.000
17.70000 117.000
17.72000 121.000
17.74000 117.000
17.76000 130.000
17.78000 126.000
17.80000 96.000
17.82000 117.000
17.84000 126.000
17.86000 107.000
17.88000 120.000
17.90000 127.000
17.92000 139.000
17.94000 120.000
17.96000 108.000
17.98000 86.000
18.00000 124.000
18.02000 121.000
18.04000 103.000
18.06000 110.000
18.08000 135.000
18.10000 119.000
18.12000 131.000
18.14000 122.000
18.16000 128.000
18.18000 116.000
18.20000 136.000
18.22000 113.000
18.24000 112.000
18.26000 152.000
18.28000 142.000
18.30000 142.000
18.32000 146.000
18.34000 143.000
18.36000 121.000
18.38000 129.000
18.40000 140.000
18.42000 116.000
18.44000 122.000
18.46000 120.000
18.48000 111.000
18.50000 117.000
18.52000 114.000
18.54000 111.000
18.56000 105.000
18.58000 134.000
18.60000 97.000
18.62000 117.000
18.64000 110.000
18.66000 130.000
18.68000 102.000
18.70000 111.000
18.72000 97.000
18.74000 112.000
18.76000 105.000
18.78000 122.000
18.80000 118.000
18.82000 116.000
18.84000 109.000
18.86000 130.000
18.88000 101.000
18.90000 107.000
18.92000 108.000
18.94000 112.000
18.96000 118.000
18.98000 99.000
19.00000 104.000
19.02000 107.000
19.04000 93.000
19.06000 126.000
19.08000 93.000
19.10000 101.000
19.12000 95.000
19.14000 117.000
19.16000 117.000
19.18000 100.000
19.20000 131.000
19.22000 103.000
19.24000 96.000
19.26000 111.000
19.28000 118.000
19.30000 110.000
19.32000 111.000
19.34000 106.000
19.36000 110.000
19.38000 132.000
19.40000 113.000
19.42000 116.000
19.44000 118.000
19.46000 102.000
19.48000 114.000
19.50000 119.000
19.52000 111.000
19.54000 126.000
19.56000 114.000
19.58000 126.000
19.60000 97.000
19.62000 116.000
19.64000 110.000
19.66000 110.000
19.68000 105.000
19.70000 119.000
19.72000 100.000
19.74000 105.000
19.76000 113.000
19.78000 124.000
19.80000 115.000
19.82000 135.000
19.84000 121.000
19.86000 101.000
19.88000 102.000
19.90000 111.000
19.92000 108.000
19.94000 127.000
19.96000 104.000
19.98000 97.000
20.00000 101.000
20.02000 113.000
20.04000 123.000
20.06000 109.000
20.08000 130.000
20.10000 112.000
20.12000 105.000
20.14000 122.000
20.16000 117.000
20.18000 101.000
20.20000 106.000
20.22000 104.000
20.24000 134.000
20.26000 114.000
20.28000 114.000
20.30000 100.000
20.32000 114.000
20.34000 118.000
20.36000 108.000
20.38000 127.000
20.40000 116.000
20.42000 126.000
20.44000 105.000
20.46000 111.000
20.48000 115.000
20.50000 109.000
20.52000 108.000
20.54000 107.000
20.56000 101.000
20.58000 110.000
20.60000 131.000
20.62000 112.000
20.64000 119.000
20.66000 100.000
20.68000 109.000
20.70000 112.000
20.72000 110.000
20.74000 124.000
20.76000 120.000
20.78000 128.000
20.80000 135.000
20.82000 125.000
20.84000 136.000
20.86000 125.000
20.88000 116.000
20.90000 130.000
20.92000 122.000
20.94000 151.000
20.96000 111.000
20.98000 132.000
21.00000 108.000
21.02000 122.000
21.04000 122.000
21.06000 112.000
21.08000 122.000
21.10000 110.000
21.12000 132.000
21.14000 123.000
21.16000 118.000
21.18000 101.000
21.20000 109.000
21.22000 125.000
21.24000 134.000
21.26000 120.000
21.28000 97.000
21.30000 118.000
21.32000 92.000
21.34000 122.000
21.36000 120.000
21.38000 96.000
21.40000 99.000
21.42000 117.000
21.44000 125.000
21.46000 113.000
21.48000 115.000
21.50000 96.000
21.52000 127.000
21.54000 107.000
21.56000 101.000
21.58000 120.000
21.60000 96.000
21.62000 128.000
21.64000 115.000
21.66000 124.000
21.68000 104.000
21.70000 114.000
21.72000 122.000
21.74000 94.000
21.76000 111.000
21.78000 120.000
21.80000 115.000
21.82000 130.000
21.84000 123.000
21.86000 119.000
21.88000 117.000
21.90000 116.000
21.92000 140.000
21.94000 119.000
21.96000 121.000
21.98000 116.000
22.00000 127.000
22.02000 120.000
22.04000 100.000
22.06000 137.000
22.08000 117.000
22.10000 118.000
22.12000 110.000
22.14000 130.000
22.16000 123.000
22.18000 116.000
22.20000 133.000
22.22000 122.000
22.24000 122.000
22.26000 132.000
22.28000 120.000
22.30000 139.000
22.32000 134.000
22.34000 157.000
22.36000 140.000
22.38000 154.000
22.40000 139.000
22.42000 106.000
22.44000 140.000
22.46000 123.000
22.48000 168.000
22.50000 147.000
22.52000 125.000
22.54000 128.000
22.56000 117.000
22.58000 138.000
22.60000 142.000
22.62000 164.000
22.64000 118.000
22.66000 134.000
22.68000 127.000
22.70000 141.000
22.72000 152.000
22.74000 146.000
22.76000 139.000
22.78000 154.000
22.80000 161.000
22.82000 161.000
22.84000 142.000
22.86000 171.000
22.88000 170.000
22.90000 211.000
22.92000 201.000
22.94000 204.000
22.96000 236.000
22.98000 204.000
23.00000 174.000
23.02000 212.000
23.04000 196.000
23.06000 220.000
23.08000 174.000
23.10000 176.000
23.12000 179.000
23.14000 180.000
23.16000 168.000
23.18000 165.000
23.20000 162.000
23.22000 154.000
23.24000 157.000
23.26000 136.000
23.28000 146.000
23.30000 144.000
23.32000 143.000
23.34000 136.000
23.36000 123.000
23.38000 115.000
23.40000 140.000
23.42000 167.000
23.44000 148.000
23.46000 130.000
23.48000 123.000
23.50000 134.000
23.52000 128.000
23.54000 146.000
23.56000 148.000
23.58000 138.000
23.60000 147.000
23.62000 138.000
23.64000 138.000
23.66000 139.000
23.68000 147.000
23.70000 142.000
23.72000 141.000
23.74000 146.000
23.76000 155.000
23.78000 133.000
23.80000 138.000
23.82000 156.000
23.84000 140.000
23.86000 158.000
23.88000 155.000
23.90000 162.000
23.92000 171.000
23.94000 167.000
23.96000 158.000
23.98000 199.000
24.00000 232.000
24.02000 237.000
24.04000 301.000
24.06000 378.000
24.08000 422.000
24.10000 546.000
24.12000 724.000
24.14000 865.000
24.16000 1050.000
24.18000 1360.000
24.20000 1424.000
24.22000 1547.000
24.24000 1471.000
24.26000 1398.000
24.28000 1047.000
24.30000 908.000
24.32000 716.000
24.34000 619.000
24.36000 623.000
24.38000 548.000
24.40000 548.000
24.42000 505.000
24.44000 460.000
24.46000 467.000
24.48000 398.000
24.50000 328.000
24.52000 290.000
24.54000 232.000
24.56000 191.000
24.58000 182.000
24.60000 161.000
24.62000 150.000
24.64000 181.000
24.66000 162.000
24.68000 168.000
24.70000 157.000
24.72000 151.000
24.74000 141.000
24.76000 151.000
24.78000 136.000
24.80000 133.000
24.82000 124.000
24.84000 116.000
24.86000 156.000
24.88000 125.000
24.90000 139.000
24.92000 124.000
24.94000 126.000
24.96000 128.000
24.98000 144.000
25.00000 135.000
25.02000 141.000
25.04000 127.000
25.06000 151.000
25.08000 122.000
25.10000 132.000
25.12000 137.000
25.14000 137.000
25.16000 138.000
25.18000 138.000
25.20000 124.000
25.22000 138.000
25.24000 136.000
25.26000 139.000
25.28000 162.000
25.30000 168.000
25.32000 190.000
25.34000 148.000
25.36000 165.000
25.38000 210.000
25.40000 249.000
25.42000 292.000
25.44000 334.000
25.46000 393.000
25.48000 570.000
25.50000 663.000
25.52000 752.000
25.54000 832.000
25.56000 907.000
25.58000 952.000
25.60000 948.000
25.62000 760.000
25.64000 681.000
25.66000 507.000
25.68000 421.000
25.70000 318.000
25.72000 246.000
25.74000 181.000
25.76000 173.000
25.78000 165.000
25.80000 181.000
25.82000 145.000
25.84000 155.000
25.86000 145.000
25.88000 130.000
25.90000 141.000
25.92000 142.000
25.94000 160.000
25.96000 138.000
25.98000 155.000
26.00000 154.000
26.02000 178.000
26.04000 203.000
26.06000 171.000
26.08000 202.000
26.10000 199.000
26.12000 189.000
26.14000 192.000
26.16000 219.000
26.18000 216.000
26.20000 180.000
26.22000 189.000
26.24000 173.000
26.26000 182.000
26.28000 152.000
26.30000 152.000
26.32000 127.000
26.34000 132.000
26.36000 149.000
26.38000 121.000
26.40000 137.000
26.42000 137.000
26.44000 156.000
26.46000 111.000
26.48000 147.000
26.50000 164.000
26.52000 149.000
26.54000 162.000
26.56000 161.000
26.58000 196.000
26.60000 184.000
26.62000 207.000
26.64000 215.000
26.66000 247.000
26.68000 266.000
26.70000 229.000
26.72000 234.000
26.74000 268.000
26.76000 251.000
26.78000 219.000
26.80000 245.000
26.82000 235.000
26.84000 180.000
26.86000 181.000
26.88000 173.000
26.90000 145.000
26.92000 147.000
26.94000 154.000
26.96000 157.000
26.98000 179.000
27.00000 148.000
27.02000 169.000
27.04000 167.000
27.06000 149.000
27.08000 176.000
27.10000 182.000
27.12000 230.000
27.14000 213.000
27.16000 213.000
27.18000 265.000
27.20000 260.000
27.22000 278.000
27.24000 310.000
27.26000 354.000
27.28000 385.000
27.30000 470.000
27.32000 505.000
27.34000 528.000
27.36000 599.000
27.38000 590.000
27.40000 648.000
27.42000 630.000
27.44000 613.000
27.46000 535.000
27.48000 473.000
27.50000 414.000
27.52000 335.000
27.54000 321.000
27.56000 276.000
27.58000 254.000
27.60000 213.000
27.62000 203.000
27.64000 211.000
27.66000 209.000
27.68000 236.000
27.70000 237.000
27.72000 187.000
27.74000 219.000
27.76000 216.000
27.78000 237.000
27.80000 252.000
27.82000 277.000
27.84000 245.000
27.86000 267.000
27.88000 283.000
27.90000 300.000
27.92000 277.000
27.94000 302.000
27.96000 317.000
27.98000 319.000
28.00000 348.000
28.02000 331.000
28.04000 349.000
28.06000 365.000
28.08000 411.000
28.10000 426.000
28.12000 453.000
28.14000 520.000
28.16000 453.000
28.18000 530.000
28.20000 494.000
28.22000 487.000
28.24000 460.000
28.26000 431.000
28.28000 372.000
28.30000 410.000
28.32000 313.000
28.34000 304.000
28.36000 265.000
28.38000 235.000
28.40000 212.000
28.42000 197.000
28.44000 184.000
28.46000 159.000
28.48000 138.000
28.50000 198.000
28.52000 190.000
28.54000 180.000
28.56000 189.000
28.58000 160.000
28.60000 160.000
28.62000 153.000
28.64000 171.000
28.66000 150.000
28.68000 158.000
28.70000 141.000
28.72000 140.000
28.74000 139.000
28.76000 122.000
28.78000 152.000
28.80000 109.000
28.82000 139.000
28.84000 126.000
28.86000 138.000
28.88000 126.000
28.90000 115.000
28.92000 129.000
28.94000 130.000
28.96000 133.000
28.98000 132.000
29.00000 128.000
29.02000 138.000
29.04000 128.000
29.06000 134.000
29.08000 135.000
29.10000 137.000
29.12000 158.000
29.14000 110.000
29.16000 156.000
29.18000 132.000
29.20000 144.000
29.22000 143.000
29.24000 131.000
29.26000 151.000
29.28000 146.000
29.30000 152.000
29.32000 159.000
29.34000 177.000
29.36000 159.000
29.38000 139.000
29.40000 163.000
29.42000 146.000
29.44000 162.000
29.46000 174.000
29.48000 196.000
29.50000 230.000
29.52000 206.000
29.54000 228.000
29.56000 247.000
29.58000 273.000
29.60000 285.000
29.62000 282.000
29.64000 275.000
29.66000 304.000
29.68000 342.000
29.70000 319.000
29.72000 341.000
29.74000 400.000
29.76000 450.000
29.78000 430.000
29.80000 530.000
29.82000 498.000
29.84000 449.000
29.86000 427.000
29.88000 366.000
29.90000 314.000
29.92000 278.000
29.94000 236.000
29.96000 200.000
29.98000 183.000
30.00000 163.000
30.02000 172.000
30.04000 146.000
30.06000 137.000
30.08000 151.000
30.10000 128.000
30.12000 121.000
30.14000 145.000
30.16000 137.000
30.18000 137.000
30.20000 121.000
30.22000 118.000
30.24000 120.000
30.26000 136.000
30.28000 127.000
30.30000 137.000
30.32000 139.000
30.34000 137.000
30.36000 159.000
30.38000 163.000
30.40000 154.000
30.42000 155.000
30.44000 183.000
30.46000 168.000
30.48000 172.000
30.50000 177.000
30.52000 222.000
30.54000 206.000
30.56000 236.000
30.58000 240.000
30.60000 257.000
30.62000 301.000
30.64000 352.000
30.66000 370.000
30.68000 426.000
30.70000 496.000
30.72000 555.000
30.74000 604.000
30.76000 676.000
30.78000 739.000
30.80000 918.000
30.82000 1097.000
30.84000 1324.000
30.86000 1967.000
30.88000 2516.000
30.90000 3444.000
30.92000 4520.000
30.94000 5556.000
30.96000 6488.000
30.98000 6837.000
31.00000 6798.000
31.02000 6232.000
31.04000 5206.000
31.06000 4138.000
31.08000 3080.000
31.10000 2172.000
31.12000 1527.000
31.14000 1043.000
31.16000 799.000
31.18000 662.000
31.20000 650.000
31.22000 544.000
31.24000 584.000
31.26000 561.000
31.28000 517.000
31.30000 479.000
31.32000 464.000
31.34000 477.000
31.36000 438.000
31.38000 442.000
31.40000 463.000
31.42000 497.000
31.44000 529.000
31.46000 554.000
31.48000 596.000
31.50000 608.000
31.52000 582.000
31.54000 596.000
31.56000 520.000
31.58000 412.000
31.60000 361.000
31.62000 332.000
31.64000 346.000
31.66000 273.000
31.68000 259.000
31.70000 240.000
31.72000 214.000
31.74000 216.000
31.76000 214.000
31.78000 223.000
31.80000 210.000
31.82000 271.000
31.84000 272.000
31.86000 309.000
31.88000 390.000
31.90000 452.000
31.92000 572.000
31.94000 641.000
31.96000 732.000
31.98000 784.000
32.00000 776.000
32.02000 784.000
32.04000 745.000
32.06000 663.000
32.08000 582.000
32.10000 573.000
32.12000 477.000
32.14000 498.000
32.16000 471.000
32.18000 497.000
32.20000 621.000
32.22000 768.000
32.24000 844.000
32.26000 885.000
32.28000 950.000
32.30000 1008.000
32.32000 1037.000
32.34000 1098.000
32.36000 1045.000
32.38000 1049.000
32.40000 1073.000
32.42000 1146.000
32.44000 1222.000
32.46000 1331.000
32.48000 1398.000
32.50000 1425.000
32.52000 1422.000
32.54000 1458.000
32.56000 1353.000
32.58000 1279.000
32.60000 996.000
32.62000 911.000
32.64000 773.000
32.66000 580.000
32.68000 520.000
32.70000 454.000
32.72000 456.000
32.74000 456.000
32.76000 475.000
32.78000 409.000
32.80000 439.000
32.82000 470.000
32.84000 456.000
32.86000 444.000
32.88000 443.000
32.90000 426.000
32.92000 417.000
32.94000 342.000
32.96000 329.000
32.98000 293.000
33.00000 269.000
33.02000 218.000
33.04000 202.000
33.06000 163.000
33.08000 145.000
33.10000 153.000
33.12000 129.000
33.14000 132.000
33.16000 117.000
33.18000 135.000
33.20000 141.000
33.22000 118.000
33.24000 105.000
33.26000 122.000
33.28000 107.000
33.30000 108.000
33.32000 127.000
33.34000 106.000
33.36000 103.000
33.38000 89.000
33.40000 103.000
33.42000 100.000
33.44000 112.000
33.46000 99.000
33.48000 95.000
33.50000 88.000
33.52000 101.000
33.54000 91.000
33.56000 77.000
33.58000 85.000
33.60000 79.000
33.62000 91.000
33.64000 93.000
33.66000 104.000
33.68000 82.000
33.70000 84.000
33.72000 97.000
33.74000 89.000
33.76000 88.000
33.78000 96.000
33.80000 96.000
33.82000 84.000
33.84000 89.000
33.86000 116.000
33.88000 83.000
33.90000 88.000
33.92000 115.000
33.94000 83.000
33.96000 119.000
33.98000 81.000
34.00000 88.000
34.02000 98.000
34.04000 78.000
34.06000 94.000
34.08000 86.000
34.10000 106.000
34.12000 96.000
34.14000 91.000
34.16000 102.000
34.18000 80.000
34.20000 109.000
34.22000 88.000
34.24000 93.000
34.26000 86.000
34.28000 99.000
34.30000 104.000
34.32000 109.000
34.34000 131.000
34.36000 110.000
34.38000 125.000
34.40000 125.000
34.42000 140.000
34.44000 123.000
34.46000 129.000
34.48000 115.000
34.50000 177.000
34.52000 172.000
34.54000 190.000
34.56000 180.000
34.58000 195.000
34.60000 205.000
34.62000 246.000
34.64000 271.000
34.66000 274.000
34.68000 295.000
34.70000 306.000
34.72000 325.000
34.74000 351.000
34.76000 358.000
34.78000 327.000
34.80000 310.000
34.82000 324.000
34.84000 297.000
34.86000 283.000
34.88000 285.000
34.90000 266.000
34.92000 246.000
34.94000 257.000
34.96000 219.000
34.98000 258.000
35.00000 252.000
35.02000 219.000
35.04000 225.000
35.06000 204.000
35.08000 216.000
35.10000 189.000
35.12000 183.000
35.14000 206.000
35.16000 207.000
35.18000 206.000
35.20000 186.000
35.22000 193.000
35.24000 238.000
35.26000 235.000
35.28000 241.000
35.30000 308.000
35.32000 292.000
35.34000 312.000
35.36000 330.000
35.38000 351.000
35.40000 331.000
35.42000 406.000
35.44000 397.000
35.46000 394.000
35.48000 417.000
35.50000 377.000
35.52000 366.000
35.54000 309.000
35.56000 260.000
35.58000 211.000
35.60000 215.000
35.62000 189.000
35.64000 156.000
35.66000 144.000
35.68000 131.000
35.70000 131.000
35.72000 123.000
35.74000 135.000
35.76000 182.000
35.78000 183.000
35.80000 204.000
35.82000 221.000
35.84000 217.000
35.86000 269.000
35.88000 239.000
35.90000 246.000
35.92000 253.000
35.94000 235.000
35.96000 224.000
35.98000 199.000
36.00000 183.000
36.02000 148.000
36.04000 145.000
36.06000 139.000
36.08000 130.000
36.10000 102.000
36.12000 107.000
36.14000 105.000
36.16000 90.000
36.18000 103.000
36.20000 104.000
36.22000 94.000
36.24000 90.000
36.26000 82.000
36.28000 96.000
36.30000 130.000
36.32000 124.000
36.34000 121.000
36.36000 146.000
36.38000 139.000
36.40000 148.000
36.42000 175.000
36.44000 164.000
36.46000 190.000
36.48000 208.000
36.50000 192.000
36.52000 182.000
36.54000 176.000
36.56000 171.000
36.58000 151.000
36.60000 169.000
36.62000 148.000
36.64000 119.000
36.66000 132.000
36.68000 127.000
36.70000 113.000
36.72000 109.000
36.74000 103.000
36.76000 112.000
36.78000 103.000
36.80000 108.000
36.82000 97.000
36.84000 111.000
36.86000 104.000
36.88000 90.000
36.90000 97.000
36.92000 88.000
36.94000 83.000
36.96000 102.000
36.98000 85.000
37.00000 100.000
37.02000 91.000
37.04000 83.000
37.06000 84.000
37.08000 84.000
37.10000 93.000
37.12000 74.000
37.14000 97.000
37.16000 91.000
37.18000 89.000
37.20000 94.000
37.22000 84.000
37.24000 87.000
37.26000 77.000
37.28000 87.000
37.30000 104.000
37.32000 89.000
37.34000 110.000
37.36000 99.000
37.38000 93.000
37.40000 91.000
37.42000 121.000
37.44000 98.000
37.46000 95.000
37.48000 103.000
37.50000 117.000
37.52000 104.000
37.54000 122.000
37.56000 120.000
37.58000 147.000
37.60000 138.000
37.62000 164.000
37.64000 148.000
37.66000 125.000
37.68000 170.000
37.70000 165.000
37.72000 143.000
37.74000 147.000
37.76000 143.000
37.78000 117.000
37.80000 142.000
37.82000 122.000
37.84000 102.000
37.86000 104.000
37.88000 104.000
37.90000 114.000
37.92000 100.000
37.94000 102.000
37.96000 81.000
37.98000 85.000
38.00000 100.000
38.02000 105.000
38.04000 100.000
38.06000 60.000
38.08000 81.000
38.10000 80.000
38.12000 84.000
38.14000 58.000
38.16000 75.000
38.18000 78.000
38.20000 76.000
38.22000 69.000
38.24000 84.000
38.26000 78.000
38.28000 72.000
38.30000 90.000
38.32000 89.000
38.34000 73.000
38.36000 84.000
38.38000 90.000
38.40000 100.000
38.42000 104.000
38.44000 94.000
38.46000 99.000
38.48000 101.000
38.50000 110.000
38.52000 108.000
38.54000 99.000
38.56000 108.000
38.58000 105.000
38.60000 90.000
38.62000 78.000
38.64000 87.000
38.66000 87.000
38.68000 82.000
38.70000 92.000
38.72000 96.000
38.74000 86.000
38.76000 88.000
38.78000 83.000
38.80000 86.000
38.82000 63.000
38.84000 72.000
38.86000 69.000
38.88000 79.000
38.90000 58.000
38.92000 85.000
38.94000 78.000
38.96000 72.000
38.98000 75.000
39.00000 68.000
39.02000 70.000
39.04000 85.000
39.06000 89.000
39.08000 73.000
39.10000 79.000
39.12000 69.000
39.14000 62.000
39.16000 70.000
39.18000 70.000
39.20000 77.000
39.22000 77.000
39.24000 92.000
39.26000 99.000
39.28000 92.000
39.30000 78.000
39.32000 86.000
39.34000 80.000
39.36000 93.000
39.38000 113.000
39.40000 130.000
39.42000 121.000
39.44000 123.000
39.46000 133.000
39.48000 161.000
39.50000 163.000
39.52000 164.000
39.54000 159.000
39.56000 126.000
39.58000 139.000
39.60000 127.000
39.62000 116.000
39.64000 129.000
39.66000 117.000
39.68000 115.000
39.70000 103.000
39.72000 94.000
39.74000 87.000
39.76000 108.000
39.78000 92.000
39.80000 92.000
39.82000 99.000
39.84000 108.000
39.86000 103.000
39.88000 103.000
39.90000 114.000
39.92000 106.000
39.94000 137.000
39.96000 134.000
39.98000 124.000
40.00000 126.000
40.02000 126.000
40.04000 147.000
40.06000 171.000
40.08000 164.000
40.10000 143.000
40.12000 171.000
40.14000 166.000
40.16000 167.000
40.18000 189.000
40.20000 172.000
40.22000 176.000
40.24000 216.000
40.26000 184.000
40.28000 180.000
40.30000 197.000
40.32000 172.000
40.34000 164.000
40.36000 159.000
40.38000 149.000
40.40000 147.000
40.42000 176.000
40.44000 194.000
40.46000 164.000
40.48000 164.000
40.50000 174.000
40.52000 195.000
40.54000 207.000
40.56000 172.000
40.58000 168.000
40.60000 223.000
40.62000 193.000
40.64000 198.000
40.66000 189.000
40.68000 225.000
40.70000 210.000
40.72000 205.000
40.74000 199.000
40.76000 220.000
40.78000 240.000
40.80000 212.000
40.82000 243.000
40.84000 254.000
40.86000 285.000
40.88000 256.000
40.90000 279.000
40.92000 277.000
40.94000 310.000
40.96000 328.000
40.98000 349.000
41.00000 309.000
41.02000 300.000
41.04000 298.000
41.06000 294.000
41.08000 287.000
41.10000 252.000
41.12000 258.000
41.14000 234.000
41.16000 250.000
41.18000 216.000
41.20000 213.000
41.22000 201.000
41.24000 196.000
41.26000 214.000
41.28000 205.000
41.30000 192.000
41.32000 179.000
41.34000 164.000
41.36000 147.000
41.38000 168.000
41.40000 166.000
41.42000 127.000
41.44000 147.000
41.46000 145.000
41.48000 172.000
41.50000 135.000
41.52000 151.000
41.54000 164.000
41.56000 165.000
41.58000 155.000
41.60000 128.000
41.62000 136.000
41.64000 134.000
41.66000 147.000
41.68000 136.000
41.70000 109.000
41.72000 108.000
41.74000 138.000
41.76000 112.000
41.78000 126.000
41.80000 110.000
41.82000 110.000
41.84000 78.000
41.86000 84.000
41.88000 107.000
41.90000 126.000
41.92000 109.000
41.94000 97.000
41.96000 112.000
41.98000 131.000
42.00000 89.000
42.02000 94.000
42.04000 120.000
42.06000 107.000
42.08000 115.000
42.10000 91.000
42.12000 104.000
42.14000 128.000
42.16000 132.000
42.18000 113.000
42.20000 129.000
42.22000 123.000
42.24000 124.000
42.26000 116.000
42.28000 132.000
42.30000 132.000
42.32000 143.000
42.34000 128.000
42.36000 125.000
42.38000 151.000
42.40000 152.000
42.42000 151.000
42.44000 152.000
42.46000 148.000
42.48000 179.000
42.50000 195.000
42.52000 212.000
42.54000 274.000
42.56000 347.000
42.58000 387.000
42.60000 451.000
42.62000 517.000
42.64000 589.000
42.66000 559.000
42.68000 529.000
42.70000 534.000
42.72000 463.000
42.74000 400.000
42.76000 362.000
42.78000 299.000
42.80000 265.000
42.82000 208.000
42.84000 175.000
42.86000 187.000
42.88000 165.000
42.90000 130.000
42.92000 147.000
42.94000 135.000
42.96000 134.000
42.98000 111.000
43.00000 133.000
43.02000 114.000
43.04000 122.000
43.06000 108.000
43.08000 108.000
43.10000 119.000
43.12000 124.000
43.14000 118.000
43.16000 151.000
43.18000 141.000
43.20000 157.000
43.22000 143.000
43.24000 146.000
43.26000 151.000
43.28000 149.000
43.30000 136.000
43.32000 126.000
43.34000 130.000
43.36000 148.000
43.38000 130.000
43.40000 133.000
43.42000 136.000
43.44000 113.000
43.46000 105.000
43.48000 107.000
43.50000 141.000
43.52000 123.000
43.54000 122.000
43.56000 107.000
43.58000 129.000
43.60000 122.000
43.62000 124.000
43.64000 146.000
43.66000 142.000
43.68000 140.000
43.70000 137.000
43.72000 153.000
43.74000 170.000
43.76000 133.000
43.78000 142.000
43.80000 155.000
43.82000 144.000
43.84000 160.000
43.86000 139.000
43.88000 183.000
43.90000 162.000
43.92000 184.000
43.94000 155.000
43.96000 147.000
43.98000 165.000
44.00000 152.000
44.02000 155.000
44.04000 151.000
44.06000 150.000
44.08000 152.000
44.10000 128.000
44.12000 126.000
44.14000 125.000
44.16000 116.000
44.18000 122.000
44.20000 120.000
44.22000 93.000
44.24000 113.000
44.26000 102.000
44.28000 96.000
44.30000 91.000
44.32000 105.000
44.34000 93.000
44.36000 74.000
44.38000 92.000
44.40000 80.000
44.42000 79.000
44.44000 75.000
44.46000 67.000
44.48000 66.000
44.50000 70.000
44.52000 73.000
44.54000 60.000
44.56000 71.000
44.58000 70.000
44.60000 92.000
44.62000 78.000
44.64000 86.000
44.66000 87.000
44.68000 92.000
44.70000 71.000
44.72000 83.000
44.74000 76.000
44.76000 87.000
44.78000 92.000
44.80000 78.000
44.82000 70.000
44.84000 84.000
44.86000 92.000
44.88000 85.000
44.90000 82.000
44.92000 85.000
44.94000 80.000
44.96000 89.000
44.98000 75.000
45.00000 86.000
45.02000 90.000
45.04000 102.000
45.06000 133.000
45.08000 114.000
45.10000 112.000
45.12000 125.000
45.14000 118.000
45.16000 133.000
45.18000 114.000
45.20000 95.000
45.22000 117.000
45.24000 109.000
45.26000 95.000
45.28000 99.000
45.30000 111.000
45.32000 92.000
45.34000 86.000
45.36000 103.000
45.38000 87.000
45.40000 108.000
45.42000 134.000
45.44000 127.000
45.46000 108.000
45.48000 110.000
45.50000 98.000
45.52000 114.000
45.54000 102.000
45.56000 133.000
45.58000 90.000
45.60000 108.000
45.62000 114.000
45.64000 119.000
45.66000 104.000
45.68000 90.000
45.70000 117.000
45.72000 95.000
45.74000 77.000
45.76000 105.000
45.78000 92.000
45.80000 82.000
45.82000 111.000
45.84000 112.000
45.86000 107.000
45.88000 107.000
45.90000 104.000
45.92000 105.000
45.94000 119.000
45.96000 145.000
45.98000 158.000
46.00000 208.000
46.02000 272.000
46.04000 300.000
46.06000 326.000
46.08000 411.000
46.10000 443.000
46.12000 495.000
46.14000 475.000
46.16000 455.000
46.18000 407.000
46.20000 406.000
46.22000 358.000
46.24000 297.000
46.26000 227.000
46.28000 187.000
46.30000 187.000
46.32000 141.000
46.34000 121.000
46.36000 127.000
46.38000 105.000
46.40000 93.000
46.42000 105.000
46.44000 95.000
46.46000 88.000
46.48000 85.000
46.50000 83.000
46.52000 83.000
46.54000 84.000
46.56000 88.000
46.58000 99.000
46.60000 88.000
46.62000 81.000
46.64000 103.000
46.66000 89.000
46.68000 81.000
46.70000 90.000
46.72000 83.000
46.74000 89.000
46.76000 84.000
46.78000 84.000
46.80000 96.000
46.82000 80.000
46.84000 85.000
46.86000 94.000
46.88000 102.000
46.90000 124.000
46.92000 96.000
46.94000 112.000
46.96000 125.000
46.98000 143.000
47.00000 164.000
47.02000 202.000
47.04000 234.000
47.06000 282.000
47.08000 282.000
47.10000 300.000
47.12000 261.000
47.14000 267.000
47.16000 203.000
47.18000 211.000
47.20000 189.000
47.22000 161.000
47.24000 151.000
47.26000 125.000
47.28000 93.000
47.30000 96.000
47.32000 93.000
47.34000 84.000
47.36000 88.000
47.38000 76.000
47.40000 77.000
47.42000 86.000
47.44000 67.000
47.46000 66.000
47.48000 76.000
47.50000 84.000
47.52000 85.000
47.54000 74.000
47.56000 78.000
47.58000 84.000
47.60000 70.000
47.62000 91.000
47.64000 79.000
47.66000 93.000
47.68000 83.000
47.70000 80.000
47.72000 86.000
47.74000 98.000
47.76000 88.000
47.78000 91.000
47.80000 95.000
47.82000 95.000
47.84000 78.000
47.86000 82.000
47.88000 88.000
47.90000 97.000
47.92000 111.000
47.94000 80.000
47.96000 87.000
47.98000 104.000
48.00000 80.000
48.02000 95.000
48.04000 91.000
48.06000 98.000
48.08000 96.000
48.10000 72.000
48.12000 99.000
48.14000 91.000
48.16000 97.000
48.18000 99.000
48.20000 91.000
48.22000 105.000
48.24000 95.000
48.26000 94.000
48.28000 99.000
48.30000 110.000
48.32000 105.000
48.34000 90.000
48.36000 84.000
48.38000 84.000
48.40000 77.000
48.42000 86.000
48.44000 71.000
48.46000 68.000
48.48000 69.000
48.50000 97.000
48.52000 75.000
48.54000 80.000
48.56000 82.000
48.58000 82.000
48.60000 83.000
48.62000 102.000
48.64000 102.000
48.66000 118.000
48.68000 108.000
48.70000 127.000
48.72000 123.000
48.74000 119.000
48.76000 161.000
48.78000 185.000
48.80000 180.000
48.82000 178.000
48.84000 184.000
48.86000 168.000
48.88000 169.000
48.90000 180.000
48.92000 183.000
48.94000 165.000
48.96000 143.000
48.98000 162.000
49.00000 135.000
49.02000 121.000
49.04000 101.000
49.06000 116.000
49.08000 92.000
49.10000 113.000
49.12000 92.000
49.14000 99.000
49.16000 93.000
49.18000 84.000
49.20000 105.000
49.22000 90.000
49.24000 71.000
49.26000 80.000
49.28000 76.000
49.30000 76.000
49.32000 104.000
49.34000 99.000
49.36000 98.000
49.38000 99.000
49.40000 105.000
49.42000 134.000
49.44000 127.000
49.46000 121.000
49.48000 141.000
49.50000 169.000
49.52000 196.000
49.54000 236.000
49.56000 219.000
49.58000 318.000
49.60000 308.000
49.62000 418.000
49.64000 430.000
49.66000 457.000
49.68000 420.000
49.70000 427.000
49.72000 364.000
49.74000 381.000
49.76000 297.000
49.78000 274.000
49.80000 244.000
49.82000 225.000
49.84000 181.000
49.86000 147.000
49.88000 151.000
49.90000 153.000
49.92000 146.000
49.94000 123.000
49.96000 132.000
49.98000 140.000
50.00000 135.000
50.02000 119.000
50.04000 164.000
50.06000 152.000
50.08000 125.000
50.10000 143.000
50.12000 140.000
50.14000 142.000
50.16000 137.000
50.18000 117.000
50.20000 91.000
50.22000 133.000
50.24000 117.000
50.26000 95.000
50.28000 91.000
50.30000 116.000
50.32000 99.000
50.34000 114.000
50.36000 107.000
50.38000 91.000
50.40000 101.000
50.42000 112.000
50.44000 106.000
50.46000 109.000
50.48000 88.000
50.50000 112.000
50.52000 93.000
50.54000 112.000
50.56000 130.000
50.58000 106.000
50.60000 120.000
50.62000 132.000
50.64000 102.000
50.66000 125.000
50.68000 119.000
50.70000 121.000
50.72000 136.000
50.74000 108.000
50.76000 105.000
50.78000 101.000
50.80000 108.000
50.82000 102.000
50.84000 102.000
50.86000 113.000
50.88000 97.000
50.90000 110.000
50.92000 123.000
50.94000 94.000
50.96000 91.000
50.98000 100.000
51.00000 88.000
51.02000 107.000
51.04000 97.000
51.06000 110.000
51.08000 77.000
51.10000 86.000
51.12000 68.000
51.14000 84.000
51.16000 85.000
51.18000 90.000
51.20000 75.000
51.22000 62.000
51.24000 65.000
51.26000 79.000
51.28000 78.000
51.30000 65.000
51.32000 71.000
51.34000 73.000
51.36000 79.000
51.38000 74.000
51.40000 77.000
51.42000 69.000
51.44000 68.000
51.46000 59.000
51.48000 71.000
51.50000 72.000
51.52000 56.000
51.54000 73.000
51.56000 72.000
51.58000 73.000
51.60000 83.000
51.62000 80.000
51.64000 77.000
51.66000 82.000
51.68000 75.000
51.70000 73.000
51.72000 79.000
51.74000 75.000
51.76000 71.000
51.78000 74.000
51.80000 75.000
51.82000 74.000
51.84000 69.000
51.86000 64.000
51.88000 71.000
51.90000 60.000
51.92000 77.000
51.94000 68.000
51.96000 70.000
51.98000 60.000
52.00000 80.000
52.02000 56.000
52.04000 57.000
52.06000 53.000
52.08000 60.000
52.10000 73.000
52.12000 54.000
52.14000 54.000
52.16000 73.000
52.18000 66.000
52.20000 66.000
52.22000 74.000
52.24000 71.000
52.26000 82.000
52.28000 64.000
52.30000 74.000
52.32000 89.000
52.34000 77.000
52.36000 92.000
52.38000 90.000
52.40000 84.000
52.42000 79.000
52.44000 72.000
52.46000 69.000
52.48000 81.000
52.50000 94.000
52.52000 85.000
52.54000 113.000
52.56000 100.000
52.58000 88.000
52.60000 103.000
52.62000 109.000
52.64000 111.000
52.66000 96.000
52.68000 108.000
52.70000 95.000
52.72000 123.000
52.74000 109.000
52.76000 95.000
52.78000 99.000
52.80000 112.000
52.82000 94.000
52.84000 94.000
52.86000 121.000
52.88000 115.000
52.90000 93.000
52.92000 102.000
52.94000 95.000
52.96000 98.000
52.98000 112.000
53.00000 113.000
53.02000 90.000
53.04000 90.000
53.06000 93.000
53.08000 110.000
53.10000 118.000
53.12000 102.000
53.14000 104.000
53.16000 87.000
53.18000 99.000
53.20000 92.000
53.22000 97.000
53.24000 97.000
53.26000 69.000
53.28000 94.000
53.30000 95.000
53.32000 94.000
53.34000 89.000
53.36000 93.000
53.38000 96.000
53.40000 108.000
53.42000 76.000
53.44000 100.000
53.46000 103.000
53.48000 102.000
53.50000 117.000
53.52000 117.000
53.54000 168.000
53.56000 190.000
53.58000 214.000
53.60000 253.000
53.62000 258.000
53.64000 295.000
53.66000 278.000
53.68000 292.000
53.70000 266.000
53.72000 244.000
53.74000 240.000
53.76000 220.000
53.78000 195.000
53.80000 201.000
53.82000 147.000
53.84000 151.000
53.86000 143.000
53.88000 121.000
53.90000 134.000
53.92000 103.000
53.94000 101.000
53.96000 103.000
53.98000 103.000
54.00000 111.000
54.02000 80.000
54.04000 72.000
54.06000 97.000
54.08000 87.000
54.10000 109.000
54.12000 103.000
54.14000 87.000
54.16000 75.000
54.18000 86.000
54.20000 76.000
54.22000 90.000
54.24000 82.000
54.26000 71.000
54.28000 67.000
54.30000 72.000
54.32000 57.000
54.34000 74.000
54.36000 66.000
54.38000 66.000
54.40000 81.000
54.42000 66.000
54.44000 68.000
54.46000 51.000
54.48000 55.000
54.50000 78.000
54.52000 65.000
54.54000 60.000
54.56000 73.000
54.58000 76.000
54.60000 69.000
54.62000 63.000
54.64000 65.000
54.66000 67.000
54.68000 60.000
54.70000 67.000
54.72000 62.000
54.74000 60.000
54.76000 77.000
54.78000 78.000
54.80000 73.000
54.82000 70.000
54.84000 81.000
54.86000 71.000
54.88000 84.000
54.90000 85.000
54.92000 88.000
54.94000 70.000
54.96000 77.000
54.98000 89.000
55.00000 74.000
55.02000 89.000
55.04000 85.000
55.06000 72.000
55.08000 81.000
55.10000 102.000
55.12000 91.000
55.14000 101.000
55.16000 99.000
55.18000 85.000
55.20000 94.000
55.22000 91.000
55.24000 96.000
55.26000 90.000
55.28000 89.000
55.30000 85.000
55.32000 104.000
55.34000 103.000
55.36000 95.000
55.38000 108.000
55.40000 89.000
55.42000 94.000
55.44000 96.000
55.46000 83.000
55.48000 85.000
55.50000 89.000
55.52000 86.000
55.54000 81.000
55.56000 82.000
55.58000 93.000
55.60000 82.000
55.62000 103.000
55.64000 82.000
55.66000 111.000
55.68000 119.000
55.70000 109.000
55.72000 95.000
55.74000 104.000
55.76000 96.000
55.78000 107.000
55.80000 104.000
55.82000 102.000
55.84000 102.000
55.86000 102.000
55.88000 91.000
55.90000 91.000
55.92000 99.000
55.94000 93.000
55.96000 76.000
55.98000 86.000
56.00000 82.000
56.02000 83.000
56.04000 78.000
56.06000 92.000
56.08000 82.000
56.10000 74.000
56.12000 77.000
56.14000 80.000
56.16000 87.000
56.18000 84.000
56.20000 80.000
56.22000 76.000
56.24000 92.000
56.26000 90.000
56.28000 85.000
56.30000 72.000
56.32000 75.000
56.34000 83.000
56.36000 68.000
56.38000 79.000
56.40000 87.000
56.42000 71.000
56.44000 81.000
56.46000 71.000
56.48000 88.000
56.50000 92.000
56.52000 84.000
56.54000 90.000
56.56000 105.000
56.58000 90.000
56.60000 101.000
56.62000 100.000
56.64000 130.000
56.66000 92.000
56.68000 104.000
56.70000 102.000
56.72000 91.000
56.74000 115.000
56.76000 97.000
56.78000 90.000
56.80000 96.000
56.82000 66.000
56.84000 72.000
56.86000 67.000
56.88000 96.000
56.90000 60.000
56.92000 60.000
56.94000 59.000
56.96000 71.000
56.98000 76.000
57.00000 83.000
57.02000 66.000
57.04000 66.000
57.06000 63.000
57.08000 67.000
57.10000 78.000
57.12000 69.000
57.14000 91.000
57.16000 63.000
57.18000 73.000
57.20000 81.000
57.22000 71.000
57.24000 61.000
57.26000 73.000
57.28000 68.000
57.30000 68.000
57.32000 75.000
57.34000 77.000
57.36000 77.000
57.38000 72.000
57.40000 70.000
57.42000 73.000
57.44000 79.000
57.46000 91.000
57.48000 87.000
57.50000 98.000
57.52000 88.000
57.54000 107.000
57.56000 106.000
57.58000 95.000
57.60000 89.000
57.62000 116.000
57.64000 129.000
57.66000 122.000
57.68000 131.000
57.70000 167.000
57.72000 154.000
57.74000 151.000
57.76000 149.000
57.78000 172.000
57.80000 168.000
57.82000 159.000
57.84000 139.000
57.86000 145.000
57.88000 139.000
57.90000 109.000
57.92000 108.000
57.94000 115.000
57.96000 108.000
57.98000 101.000
58.00000 95.000
58.02000 103.000
58.04000 96.000
58.06000 97.000
58.08000 89.000
58.10000 106.000
58.12000 101.000
58.14000 82.000
58.16000 101.000
58.18000 103.000
58.20000 104.000
58.22000 88.000
58.24000 102.000
58.26000 128.000
58.28000 117.000
58.30000 133.000
58.32000 144.000
58.34000 111.000
58.36000 128.000
58.38000 141.000
58.40000 131.000
58.42000 119.000
58.44000 157.000
58.46000 159.000
58.48000 180.000
58.50000 168.000
58.52000 208.000
58.54000 185.000
58.56000 217.000
58.58000 195.000
58.60000 200.000
58.62000 197.000
58.64000 212.000
58.66000 233.000
58.68000 230.000
58.70000 218.000
58.72000 234.000
58.74000 274.000
58.76000 281.000
58.78000 396.000
58.80000 493.000
58.82000 496.000
58.84000 631.000
58.86000 684.000
58.88000 798.000
58.90000 770.000
58.92000 714.000
58.94000 636.000
58.96000 566.000
58.98000 521.000
59.00000 464.000
59.02000 523.000
59.04000 431.000
59.06000 332.000
59.08000 269.000
59.10000 210.000
59.12000 179.000
59.14000 152.000
59.16000 135.000
59.18000 130.000
59.20000 115.000
59.22000 110.000
59.24000 110.000
59.26000 92.000
59.28000 89.000
59.30000 137.000
59.32000 134.000
59.34000 138.000
59.36000 142.000
59.38000 170.000
59.40000 198.000
59.42000 204.000
59.44000 241.000
59.46000 236.000
59.48000 258.000
59.50000 246.000
59.52000 237.000
59.54000 292.000
59.56000 245.000
59.58000 251.000
59.60000 285.000
59.62000 218.000
59.64000 212.000
59.66000 226.000
59.68000 211.000
59.70000 183.000
59.72000 157.000
59.74000 138.000
59.76000 146.000
59.78000 126.000
59.80000 129.000
59.82000 102.000
59.84000 97.000
59.86000 95.000
59.88000 96.000
59.90000 110.000
59.92000 79.000
59.94000 86.000
59.96000 98.000
59.98000 101.000
60.00000 78.000
60.02000 109.000
60.04000 98.000
60.06000 121.000
60.08000 113.000
60.10000 118.000
60.12000 136.000
60.14000 150.000
60.16000 162.000
60.18000 157.000
60.20000 170.000
60.22000 167.000
60.24000 147.000
60.26000 175.000
60.28000 159.000
60.30000 146.000
60.32000 167.000
60.34000 165.000
60.36000 146.000
60.38000 106.000
60.40000 121.000
60.42000 128.000
60.44000 110.000
60.46000 113.000
60.48000 105.000
60.50000 71.000
60.52000 98.000
60.54000 83.000
60.56000 83.000
60.58000 79.000
60.60000 71.000
60.62000 74.000
60.64000 60.000
60.66000 64.000
60.68000 71.000
60.70000 70.000
60.72000 62.000
60.74000 81.000
60.76000 62.000
60.78000 69.000
60.80000 77.000
60.82000 75.000
60.84000 78.000
60.86000 73.000
60.88000 58.000
60.90000 66.000
60.92000 73.000
60.94000 70.000
60.96000 51.000
60.98000 75.000
61.00000 54.000
61.02000 59.000
61.04000 67.000
61.06000 52.000
61.08000 78.000
61.10000 46.000
61.12000 48.000
61.14000 62.000
61.16000 55.000
61.18000 65.000
61.20000 74.000
61.22000 79.000
61.24000 86.000
61.26000 71.000
61.28000 86.000
61.30000 80.000
61.32000 93.000
61.34000 85.000
61.36000 84.000
61.38000 76.000
61.40000 89.000
61.42000 91.000
61.44000 86.000
61.46000 91.000
61.48000 105.000
61.50000 90.000
61.52000 79.000
61.54000 84.000
61.56000 93.000
61.58000 81.000
61.60000 69.000
61.62000 100.000
61.64000 86.000
61.66000 95.000
61.68000 79.000
61.70000 92.000
61.72000 86.000
61.74000 90.000
61.76000 101.000
61.78000 69.000
61.80000 93.000
61.82000 96.000
61.84000 78.000
61.86000 83.000
61.88000 89.000
61.90000 104.000
61.92000 105.000
61.94000 102.000
61.96000 91.000
61.98000 96.000
62.00000 95.000
62.02000 97.000
62.04000 87.000
62.06000 105.000
62.08000 91.000
62.10000 94.000
62.12000 91.000
62.14000 86.000
62.16000 83.000
62.18000 91.000
62.20000 95.000
62.22000 113.000
62.24000 85.000
62.26000 102.000
62.28000 84.000
62.30000 79.000
62.32000 98.000
62.34000 94.000
62.36000 102.000
62.38000 84.000
62.40000 102.000
62.42000 87.000
62.44000 75.000
62.46000 109.000
62.48000 89.000
62.50000 109.000
62.52000 101.000
62.54000 104.000
62.56000 104.000
62.58000 97.000
62.60000 119.000
62.62000 104.000
62.64000 109.000
62.66000 105.000
62.68000 107.000
62.70000 116.000
62.72000 95.000
62.74000 83.000
62.76000 98.000
62.78000 99.000
62.80000 80.000
62.82000 81.000
62.84000 85.000
62.86000 69.000
62.88000 73.000
62.90000 81.000
62.92000 81.000
62.94000 74.000
62.96000 71.000
62.98000 64.000
63.00000 62.000
63.02000 63.000
63.04000 53.000
63.06000 69.000
63.08000 44.000
63.10000 68.000
63.12000 66.000
63.14000 72.000
63.16000 66.000
63.18000 51.000
63.20000 72.000
63.22000 72.000
63.24000 57.000
63.26000 63.000
63.28000 85.000
63.30000 79.000
63.32000 67.000
63.34000 78.000
63.36000 59.000
63.38000 69.000
63.40000 73.000
63.42000 86.000
63.44000 67.000
63.46000 75.000
63.48000 56.000
63.50000 78.000
63.52000 80.000
63.54000 69.000
63.56000 83.000
63.58000 78.000
63.60000 78.000
63.62000 84.000
63.64000 68.000
63.66000 64.000
63.68000 61.000
63.70000 85.000
63.72000 96.000
63.74000 73.000
63.76000 75.000
63.78000 72.000
63.80000 67.000
63.82000 93.000
63.84000 87.000
63.86000 85.000
63.88000 93.000
63.90000 78.000
63.92000 81.000
63.94000 79.000
63.96000 94.000
63.98000 87.000
64.00000 81.000
64.02000 83.000
64.04000 88.000
64.06000 94.000
64.08000 90.000
64.10000 78.000
64.12000 86.000
64.14000 88.000
64.16000 88.000
64.18000 101.000
64.20000 80.000
64.22000 98.000
64.24000 87.000
64.26000 82.000
64.28000 79.000
64.30000 86.000
64.32000 74.000
64.34000 87.000
64.36000 101.000
64.38000 100.000
64.40000 80.000
64.42000 88.000
64.44000 76.000
64.46000 106.000
64.48000 107.000
64.50000 111.000
64.52000 149.000
64.54000 155.000
64.56000 181.000
64.58000 222.000
64.60000 267.000
64.62000 253.000
64.64000 249.000
64.66000 251.000
64.68000 267.000
64.70000 233.000
64.72000 210.000
64.74000 209.000
64.76000 183.000
64.78000 197.000
64.80000 181.000
64.82000 135.000
64.84000 143.000
64.86000 133.000
64.88000 121.000
64.90000 118.000
64.92000 108.000
64.94000 80.000
64.96000 95.000
64.98000 91.000
65.00000 93.000
65.02000 91.000
65.04000 111.000
65.06000 92.000
65.08000 114.000
65.10000 127.000
65.12000 131.000
65.14000 150.000
65.16000 167.000
65.18000 138.000
65.20000 171.000
65.22000 142.000
65.24000 153.000
65.26000 128.000
65.28000 108.000
65.30000 123.000
65.32000 110.000
65.34000 121.000
65.36000 111.000
65.38000 104.000
65.40000 90.000
65.42000 90.000
65.44000 90.000
65.46000 92.000
65.48000 98.000
65.50000 80.000
65.52000 95.000
65.54000 83.000
65.56000 81.000
65.58000 61.000
65.60000 72.000
65.62000 65.000
65.64000 65.000
65.66000 74.000
65.68000 83.000
65.70000 84.000
65.72000 70.000
65.74000 67.000
65.76000 75.000
65.78000 78.000
65.80000 55.000
65.82000 89.000
65.84000 76.000
65.86000 88.000
65.88000 72.000
65.90000 88.000
65.92000 66.000
65.94000 72.000
65.96000 69.000
65.98000 71.000
66.00000 72.000
66.02000 65.000
66.04000 70.000
66.06000 55.000
66.08000 82.000
66.10000 63.000
66.12000 63.000
66.14000 72.000
66.16000 72.000
66.18000 71.000
66.20000 67.000
66.22000 81.000
66.24000 51.000
66.26000 74.000
66.28000 64.000
66.30000 62.000
66.32000 74.000
66.34000 81.000
66.36000 79.000
66.38000 69.000
66.40000 64.000
66.42000 85.000
66.44000 88.000
66.46000 76.000
66.48000 82.000
66.50000 64.000
66.52000 65.000
66.54000 70.000
66.56000 66.000
66.58000 73.000
66.60000 63.000
66.62000 68.000
66.64000 77.000
66.66000 66.000
66.68000 63.000
66.70000 59.000
66.72000 64.000
66.74000 67.000
66.76000 81.000
66.78000 73.000
66.80000 69.000
66.82000 75.000
66.84000 68.000
66.86000 81.000
66.88000 73.000
66.90000 74.000
66.92000 81.000
66.94000 69.000
66.96000 63.000
66.98000 73.000
67.00000 67.000
67.02000 59.000
67.04000 82.000
67.06000 70.000
67.08000 53.000
67.10000 75.000
67.12000 75.000
67.14000 65.000
67.16000 57.000
67.18000 63.000
67.20000 61.000
67.22000 39.000
67.24000 66.000
67.26000 53.000
67.28000 58.000
67.30000 58.000
67.32000 53.000
67.34000 63.000
67.36000 56.000
67.38000 53.000
67.40000 62.000
67.42000 57.000
67.44000 65.000
67.46000 69.000
67.48000 67.000
67.50000 79.000
67.52000 71.000
67.54000 75.000
67.56000 85.000
67.58000 74.000
67.60000 81.000
67.62000 82.000
67.64000 76.000
67.66000 78.000
67.68000 74.000
67.70000 78.000
67.72000 92.000
67.74000 82.000
67.76000 82.000
67.78000 68.000
67.80000 80.000
67.82000 95.000
67.84000 82.000
67.86000 98.000
67.88000 102.000
67.90000 92.000
67.92000 112.000
67.94000 88.000
67.96000 103.000
67.98000 108.000
68.00000 116.000
68.02000 92.000
68.04000 93.000
68.06000 105.000
68.08000 85.000
68.10000 94.000
68.12000 111.000
68.14000 82.000
68.16000 89.000
68.18000 104.000
68.20000 82.000
68.22000 71.000
68.24000 77.000
68.26000 90.000
68.28000 86.000
68.30000 79.000
68.32000 89.000
68.34000 88.000
68.36000 84.000
68.38000 74.000
68.40000 75.000
68.42000 81.000
68.44000 80.000
68.46000 67.000
68.48000 89.000
68.50000 89.000
68.52000 79.000
68.54000 85.000
68.56000 65.000
68.58000 70.000
68.60000 72.000
68.62000 73.000
68.64000 78.000
68.66000 70.000
68.68000 73.000
68.70000 78.000
68.72000 64.000
68.74000 71.000
68.76000 73.000
68.78000 55.000
68.80000 56.000
68.82000 76.000
68.84000 65.000
68.86000 72.000
68.88000 53.000
68.90000 64.000
68.92000 86.000
68.94000 58.000
68.96000 73.000
68.98000 77.000
69.00000 52.000
69.02000 79.000
69.04000 76.000
69.06000 65.000
69.08000 72.000
69.10000 68.000
69.12000 80.000
69.14000 71.000
69.16000 76.000
69.18000 90.000
69.20000 83.000
69.22000 93.000
69.24000 96.000
69.26000 103.000
69.28000 95.000
69.30000 119.000
69.32000 90.000
69.34000 120.000
69.36000 97.000
69.38000 114.000
69.40000 99.000
69.42000 103.000
69.44000 78.000
69.46000 104.000
69.48000 105.000
69.50000 94.000
69.52000 97.000
69.54000 102.000
69.56000 91.000
69.58000 63.000
69.60000 87.000
69.62000 65.000
69.64000 76.000
69.66000 71.000
69.68000 71.000
69.70000 66.000
69.72000 61.000
69.74000 72.000
69.76000 59.000
69.78000 68.000
69.80000 47.000
69.82000 68.000
69.84000 67.000
69.86000 77.000
69.88000 84.000
69.90000 78.000
69.92000 78.000
69.94000 71.000
69.96000 78.000
69.98000 79.000
70.00000 69.000
70.02000 81.000
70.04000 85.000
70.06000 78.000
70.08000 71.000
70.10000 58.000
70.12000 68.000
70.14000 100.000
70.16000 80.000
70.18000 69.000
70.20000 70.000
70.22000 83.000
70.24000 84.000
70.26000 94.000
70.28000 73.000
70.30000 84.000
70.32000 61.000
70.34000 71.000
70.36000 84.000
70.38000 78.000
70.40000 86.000
70.42000 93.000
70.44000 79.000
70.46000 88.000
70.48000 74.000
70.50000 80.000
70.52000 73.000
70.54000 77.000
70.56000 97.000
70.58000 88.000
70.60000 98.000
70.62000 74.000
70.64000 102.000
70.66000 123.000
70.68000 103.000
70.70000 147.000
70.72000 143.000
70.74000 206.000
70.76000 192.000
70.78000 268.000
70.80000 345.000
70.82000 400.000
70.84000 455.000
70.86000 505.000
70.88000 496.000
70.90000 477.000
70.92000 434.000
70.94000 407.000
70.96000 381.000
70.98000 314.000
71.00000 322.000
71.02000 348.000
71.04000 303.000
71.06000 300.000
71.08000 289.000
71.10000 228.000
71.12000 194.000
71.14000 159.000
71.16000 123.000
71.18000 129.000
71.20000 110.000
71.22000 120.000
71.24000 114.000
71.26000 136.000
71.28000 121.000
71.30000 95.000
71.32000 102.000
71.34000 86.000
71.36000 96.000
71.38000 102.000
71.40000 89.000
71.42000 80.000
71.44000 95.000
71.46000 92.000
71.48000 95.000
71.50000 74.000
71.52000 91.000
71.54000 82.000
71.56000 82.000
71.58000 81.000
71.60000 83.000
71.62000 78.000
71.64000 87.000
71.66000 76.000
71.68000 72.000
71.70000 78.000
71.72000 83.000
71.74000 74.000
71.76000 87.000
71.78000 80.000
71.80000 86.000
71.82000 75.000
71.84000 66.000
71.86000 70.000
71.88000 91.000
71.90000 92.000
71.92000 68.000
71.94000 70.000
71.96000 71.000
71.98000 78.000
72.00000 82.000
72.02000 78.000
72.04000 74.000
72.06000 69.000
72.08000 65.000
72.10000 79.000
72.12000 69.000
72.14000 72.000
72.16000 69.000
72.18000 68.000
72.20000 71.000
72.22000 66.000
72.24000 83.000
72.26000 72.000
72.28000 78.000
72.30000 60.000
72.32000 79.000
72.34000 78.000
72.36000 86.000
72.38000 76.000
72.40000 69.000
72.42000 74.000
72.44000 88.000
72.46000 94.000
72.48000 74.000
72.50000 85.000
72.52000 81.000
72.54000 89.000
72.56000 92.000
72.58000 81.000
72.60000 99.000
72.62000 87.000
72.64000 72.000
72.66000 89.000
72.68000 76.000
72.70000 98.000
72.72000 80.000
72.74000 93.000
72.76000 96.000
72.78000 105.000
72.80000 112.000
72.82000 114.000
72.84000 92.000
72.86000 87.000
72.88000 100.000
72.90000 102.000
72.92000 71.000
72.94000 121.000
72.96000 107.000
72.98000 108.000
73.00000 114.000
73.02000 110.000
73.04000 126.000
73.06000 117.000
73.08000 120.000
73.10000 110.000
73.12000 130.000
73.14000 123.000
73.16000 118.000
73.18000 119.000
73.20000 101.000
73.22000 129.000
73.24000 111.000
73.26000 103.000
73.28000 133.000
73.30000 125.000
73.32000 98.000
73.34000 121.000
73.36000 115.000
73.38000 105.000
73.40000 121.000
73.42000 110.000
73.44000 130.000
73.46000 108.000
73.48000 106.000
73.50000 93.000
73.52000 111.000
73.54000 108.000
73.56000 95.000
73.58000 107.000
73.60000 105.000
73.62000 101.000
73.64000 93.000
73.66000 84.000
73.68000 80.000
73.70000 98.000
73.72000 89.000
73.74000 70.000
73.76000 91.000
73.78000 92.000
73.80000 90.000
73.82000 100.000
73.84000 87.000
73.86000 90.000
73.88000 77.000
73.90000 86.000
73.92000 88.000
73.94000 78.000
73.96000 93.000
73.98000 70.000
74.00000 75.000
74.02000 76.000
74.04000 72.000
74.06000 82.000
74.08000 65.000
74.10000 70.000
74.12000 76.000
74.14000 62.000
74.16000 60.000
74.18000 66.000
74.20000 88.000
74.22000 63.000
74.24000 90.000
74.26000 70.000
74.28000 74.000
74.30000 63.000
74.32000 77.000
74.34000 88.000
74.36000 78.000
74.38000 75.000
74.40000 85.000
74.42000 66.000
74.44000 66.000
74.46000 77.000
74.48000 71.000
74.50000 94.000
74.52000 69.000
74.54000 63.000
74.56000 76.000
74.58000 88.000
74.60000 64.000
74.62000 87.000
74.64000 66.000
74.66000 70.000
74.68000 78.000
74.70000 77.000
74.72000 63.000
74.74000 76.000
74.76000 82.000
74.78000 85.000
74.80000 96.000
74.82000 75.000
74.84000 69.000
74.86000 70.000
74.88000 93.000
74.90000 87.000
74.92000 78.000
74.94000 82.000
74.96000 81.000
74.98000 90.000
75.00000 83.000
