2.00000 2323.000
2.02000 2128.000
2.04000 2056.000
2.06000 1918.000
2.08000 1861.000
2.10000 1799.000
2.12000 1660.000
2.14000 1562.000
2.16000 1592.000
2.18000 1521.000
2.20000 1458.000
2.22000 1376.000
2.24000 1466.000
2.26000 1437.000
2.28000 1348.000
2.30000 1318.000
2.32000 1337.000
2.34000 1311.000
2.36000 1313.000
2.38000 1298.000
2.40000 1291.000
2.42000 1279.000
2.44000 1244.000
2.46000 1198.000
2.48000 1214.000
2.50000 1241.000
2.52000 1171.000
2.54000 1128.000
2.56000 1209.000
2.58000 1186.000
2.60000 1102.000
2.62000 1085.000
2.64000 1137.000
2.66000 1101.000
2.68000 1119.000
2.70000 1056.000
2.72000 997.000
2.74000 1072.000
2.76000 1078.000
2.78000 1019.000
2.80000 958.000
2.82000 1047.000
2.84000 996.000
2.86000 1039.000
2.88000 1008.000
2.90000 1000.000
2.92000 935.000
2.94000 1007.000
2.96000 941.000
2.98000 941.000
3.00000 935.000
3.02000 987.000
3.04000 943.000
3.06000 975.000
3.08000 923.000
3.10000 837.000
3.12000 874.000
3.14000 855.000
3.16000 829.000
3.18000 848.000
3.20000 838.000
3.22000 872.000
3.24000 887.000
3.26000 847.000
3.28000 809.000
3.30000 838.000
3.32000 874.000
3.34000 797.000
3.36000 798.000
3.38000 832.000
3.40000 821.000
3.42000 774.000
3.44000 813.000
3.46000 817.000
3.48000 800.000
3.50000 772.000
3.52000 729.000
3.54000 781.000
3.56000 719.000
3.58000 734.000
3.60000 722.000
3.62000 742.000
3.64000 722.000
3.66000 739.000
3.68000 720.000
3.70000 723.000
3.72000 682.000
3.74000 749.000
3.76000 693.000
3.78000 632.000
3.80000 715.000
3.82000 714.000
3.84000 714.000
3.86000 624.000
3.88000 657.000
3.90000 686.000
3.92000 657.000
3.94000 708.000
3.96000 625.000
3.98000 600.000
4.00000 671.000
4.02000 672.000
4.04000 681.000
4.06000 603.000
4.08000 567.000
4.10000 648.000
4.12000 617.000
4.14000 628.000
4.16000 647.000
4.18000 634.000
4.20000 619.000
4.22000 577.000
4.24000 578.000
4.26000 586.000
4.28000 595.000
4.30000 577.000
4.32000 608.000
4.34000 504.000
4.36000 575.000
4.38000 582.000
4.40000 573.000
4.42000 542.000
4.44000 543.000
4.46000 548.000
4.48000 547.000
4.50000 547.000
4.52000 530.000
4.54000 564.000
4.56000 532.000
4.58000 536.000
4.60000 521.000
4.62000 548.000
4.64000 544.000
4.66000 546.000
4.68000 539.000
4.70000 549.000
4.72000 549.000
4.74000 531.000
4.76000 459.000
4.78000 512.000
4.80000 511.000
4.82000 504.000
4.84000 515.000
4.86000 545.000
4.88000 499.000
4.90000 534.000
4.92000 471.000
4.94000 509.000
4.96000 515.000
4.98000 486.000
5.00000 488.000
5.02000 494.000
5.04000 524.000
5.06000 482.000
5.08000 446.000
5.10000 484.000
5.12000 447.000
5.14000 464.000
5.16000 449.000
5.18000 440.000
5.20000 495.000
5.22000 417.000
5.24000 426.000
5.26000 475.000
5.28000 438.000
5.30000 417.000
5.32000 473.000
5.34000 443.000
5.36000 413.000
5.38000 425.000
5.40000 423.000
5.42000 427.000
5.44000 407.000
5.46000 449.000
5.48000 439.000
5.50000 446.000
5.52000 433.000
5.54000 434.000
5.56000 393.000
5.58000 392.000
5.60000 442.000
5.62000 441.000
5.64000 443.000
5.66000 384.000
5.68000 469.000
5.70000 406.000
5.72000 410.000
5.74000 445.000
5.76000 425.000
5.78000 407.000
5.80000 387.000
5.82000 397.000
5.84000 413.000
5.86000 387.000
5.88000 397.000
5.90000 411.000
5.92000 373.000
5.94000 364.000
5.96000 368.000
5.98000 380.000
6.00000 378.000
6.02000 398.000
6.04000 420.000
6.06000 397.000
6.08000 403.000
6.10000 391.000
6.12000 341.000
6.14000 407.000
6.16000 372.000
6.18000 386.000
6.20000 353.000
6.22000 391.000
6.24000 410.000
6.26000 415.000
6.28000 399.000
6.30000 362.000
6.32000 390.000
6.34000 391.000
6.36000 378.000
6.38000 370.000
6.40000 389.000
6.42000 341.000
6.44000 384.000
6.46000 366.000
6.48000 341.000
6.50000 407.000
6.52000 375.000
6.54000 380.000
6.56000 369.000
6.58000 334.000
6.60000 374.000
6.62000 370.000
6.64000 356.000
6.66000 382.000
6.68000 333.000
6.70000 333.000
6.72000 384.000
6.74000 342.000
6.76000 343.000
6.78000 360.000
6.80000 339.000
6.82000 376.000
6.84000 388.000
6.86000 375.000
6.88000 352.000
6.90000 391.000
6.92000 365.000
6.94000 373.000
6.96000 340.000
6.98000 366.000
7.00000 394.000
7.02000 363.000
7.04000 344.000
7.06000 379.000
7.08000 417.000
7.10000 427.000
7.12000 371.000
7.14000 384.000
7.16000 398.000
7.18000 376.000
7.20000 381.000
7.22000 370.000
7.24000 425.000
7.26000 363.000
7.28000 387.000
7.30000 421.000
7.32000 410.000
7.34000 399.000
7.36000 395.000
7.38000 389.000
7.40000 359.000
7.42000 403.000
7.44000 398.000
7.46000 379.000
7.48000 367.000
7.50000 380.000
7.52000 420.000
7.54000 376.000
7.56000 349.000
7.58000 358.000
7.60000 372.000
7.62000 375.000
7.64000 338.000
7.66000 363.000
7.68000 346.000
7.70000 348.000
7.72000 361.000
7.74000 337.000
7.76000 343.000
7.78000 358.000
7.80000 352.000
7.82000 329.000
7.84000 342.000
7.86000 329.000
7.88000 338.000
7.90000 343.000
7.92000 313.000
7.94000 333.000
7.96000 338.000
7.98000 335.000
8.00000 335.000
8.02000 308.000
8.04000 297.000
8.06000 309.000
8.08000 323.000
8.10000 290.000
8.12000 313.000
8.14000 256.000
8.16000 257.000
8.18000 291.000
8.20000 298.000
8.22000 303.000
8.24000 294.000
8.26000 295.000
8.28000 300.000
8.30000 293.000
8.32000 279.000
8.34000 307.000
8.36000 299.000
8.38000 288.000
8.40000 274.000
8.42000 262.000
8.44000 295.000
8.46000 304.000
8.48000 326.000
8.50000 275.000
8.52000 246.000
8.54000 261.000
8.56000 250.000
8.58000 279.000
8.60000 265.000
8.62000 287.000
8.64000 265.000
8.66000 283.000
8.68000 261.000
8.70000 273.000
8.72000 313.000
8.74000 268.000
8.76000 308.000
8.78000 255.000
8.80000 280.000
8.82000 227.000
8.84000 283.000
8.86000 265.000
8.88000 259.000
8.90000 253.000
8.92000 262.000
8.94000 282.000
8.96000 241.000
8.98000 247.000
9.00000 248.000
9.02000 237.000
9.04000 270.000
9.06000 253.000
9.08000 233.000
9.10000 244.000
9.12000 231.000
9.14000 265.000
9.16000 231.000
9.18000 217.000
9.20000 275.000
9.22000 266.000
9.24000 243.000
9.26000 245.000
9.28000 245.000
9.30000 249.000
9.32000 271.000
9.34000 267.000
9.36000 223.000
9.38000 259.000
9.40000 232.000
9.42000 244.000
9.44000 249.000
9.46000 276.000
9.48000 267.000
9.50000 247.000
9.52000 222.000
9.54000 249.000
9.56000 272.000
9.58000 257.000
9.60000 217.000
9.62000 224.000
9.64000 245.000
9.66000 220.000
9.68000 225.000
9.70000 248.000
9.72000 234.000
9.74000 223.000
9.76000 243.000
9.78000 245.000
9.80000 240.000
9.82000 213.000
9.84000 247.000
9.86000 246.000
9.88000 231.000
9.90000 229.000
9.92000 240.000
9.94000 239.000
9.96000 262.000
9.98000 215.000
10.00000 256.000
10.02000 250.000
10.04000 223.000
10.06000 221.000
10.08000 270.000
10.10000 229.000
10.12000 290.000
10.14000 269.000
10.16000 277.000
10.18000 275.000
10.20000 262.000
10.22000 291.000
10.24000 316.000
10.26000 322.000
10.28000 307.000
10.30000 292.000
10.32000 290.000
10.34000 261.000
10.36000 229.000
10.38000 223.000
10.40000 253.000
10.42000 239.000
10.44000 198.000
10.46000 241.000
10.48000 231.000
10.50000 243.000
10.52000 234.000
10.54000 226.000
10.56000 204.000
10.58000 215.000
10.60000 199.000
10.62000 246.000
10.64000 202.000
10.66000 211.000
10.68000 208.000
10.70000 215.000
10.72000 248.000
10.74000 200.000
10.76000 208.000
10.78000 216.000
10.80000 186.000
10.82000 215.000
10.84000 198.000
10.86000 200.000
10.88000 206.000
10.90000 201.000
10.92000 202.000
10.94000 222.000
10.96000 217.000
10.98000 218.000
11.00000 195.000
11.02000 190.000
11.04000 210.000
11.06000 200.000
11.08000 210.000
11.10000 260.000
11.12000 216.000
11.14000 211.000
11.16000 225.000
11.18000 215.000
11.20000 237.000
11.22000 211.000
11.24000 203.000
11.26000 244.000
11.28000 243.000
11.30000 234.000
11.32000 209.000
11.34000 228.000
11.36000 233.000
11.38000 221.000
11.40000 221.000
11.42000 215.000
11.44000 228.000
11.46000 215.000
11.48000 206.000
11.50000 182.000
11.52000 178.000
11.54000 187.000
11.56000 216.000
11.58000 204.000
11.60000 188.000
11.62000 188.000
11.64000 198.000
11.66000 201.000
11.68000 182.000
11.70000 203.000
11.72000 175.000
11.74000 189.000
11.76000 181.000
11.78000 202.000
11.80000 211.000
11.82000 183.000
11.84000 177.000
11.86000 216.000
11.88000 195.000
11.90000 190.000
11.92000 207.000
11.94000 184.000
11.96000 197.000
11.98000 235.000
12.00000 206.000
12.02000 226.000
12.04000 209.000
12.06000 208.000
12.08000 223.000
12.10000 251.000
12.12000 262.000
12.14000 276.000
12.16000 266.000
12.18000 297.000
12.20000 286.000
12.22000 314.000
12.24000 285.000
12.26000 291.000
12.28000 242.000
12.30000 252.000
12.32000 217.000
12.34000 201.000
12.36000 216.000
12.38000 174.000
12.40000 198.000
12.42000 185.000
12.44000 185.000
12.46000 182.000
12.48000 174.000
12.50000 198.000
12.52000 177.000
12.54000 200.000
12.56000 157.000
12.58000 183.000
12.60000 196.000
12.62000 169.000
12.64000 199.000
12.66000 190.000
12.68000 188.000
12.70000 170.000
12.72000 191.000
12.74000 167.000
12.76000 179.000
12.78000 202.000
12.80000 168.000
12.82000 176.000
12.84000 193.000
12.86000 191.000
12.88000 190.000
12.90000 167.000
12.92000 186.000
12.94000 193.000
12.96000 166.000
12.98000 170.000
13.00000 172.000
13.02000 182.000
13.04000 200.000
13.06000 196.000
13.08000 186.000
13.10000 180.000
13.12000 175.000
13.14000 164.000
13.16000 170.000
13.18000 166.000
13.20000 149.000
13.22000 163.000
13.24000 193.000
13.26000 186.000
13.28000 176.000
13.30000 177.000
13.32000 203.000
13.34000 171.000
13.36000 176.000
13.38000 179.000
13.40000 171.000
13.42000 158.000
13.44000 185.000
13.46000 147.000
13.48000 166.000
13.50000 183.000
13.52000 174.000
13.54000 160.000
13.56000 159.000
13.58000 169.000
13.60000 158.000
13.62000 187.000
13.64000 156.000
13.66000 176.000
13.68000 159.000
13.70000 140.000
13.72000 167.000
13.74000 185.000
13.76000 169.000
13.78000 182.000
13.80000 176.000
13.82000 181.000
13.84000 168.000
13.86000 184.000
13.88000 179.000
13.90000 172.000
13.92000 167.000
13.94000 192.000
13.96000 173.000
13.98000 147.000
14.00000 185.000
14.02000 176.000
14.04000 187.000
14.06000 177.000
14.08000 196.000
14.10000 186.000
14.12000 167.000
14.14000 177.000
14.16000 192.000
14.18000 200.000
14.20000 204.000
14.22000 191.000
14.24000 197.000
14.26000 194.000
14.28000 194.000
14.30000 185.000
14.32000 207.000
14.34000 229.000
14.36000 189.000
14.38000 216.000
14.40000 221.000
14.42000 205.000
14.44000 247.000
14.46000 219.000
14.48000 220.000
14.50000 214.000
14.52000 223.000
14.54000 203.000
14.56000 189.000
14.58000 178.000
14.60000 206.000
14.62000 192.000
14.64000 161.000
14.66000 191.000
14.68000 144.000
14.70000 162.000
14.72000 169.000
14.74000 161.000
14.76000 202.000
14.78000 168.000
14.80000 164.000
14.82000 189.000
14.84000 165.000
14.86000 184.000
14.88000 169.000
14.90000 167.000
14.92000 184.000
14.94000 163.000
14.96000 168.000
14.98000 158.000
15.00000 153.000
15.02000 183.000
15.04000 159.000
15.06000 153.000
15.08000 148.000
15.10000 186.000
15.12000 175.000
15.14000 168.000
15.16000 189.000
15.18000 173.000
15.20000 158.000
15.22000 177.000
15.24000 148.000
15.26000 164.000
15.28000 162.000
15.30000 173.000
15.32000 149.000
15.34000 158.000
15.36000 170.000
15.38000 179.000
15.40000 162.000
15.42000 163.000
15.44000 186.000
15.46000 164.000
15.48000 165.000
15.50000 166.000
15.52000 177.000
15.54000 149.000
15.56000 152.000
15.58000 172.000
15.60000 168.000
15.62000 160.000
15.64000 172.000
15.66000 157.000
15.68000 146.000
15.70000 172.000
15.72000 194.000
15.74000 168.000
15.76000 175.000
15.78000 154.000
15.80000 184.000
15.82000 158.000
15.84000 182.000
15.86000 192.000
15.88000 189.000
15.90000 203.000
15.92000 209.000
15.94000 176.000
15.96000 224.000
15.98000 210.000
16.00000 180.000
16.02000 197.000
16.04000 220.000
16.06000 226.000
16.08000 199.000
16.10000 233.000
16.12000 181.000
16.14000 200.000
16.16000 203.000
16.18000 180.000
16.20000 164.000
16.22000 182.000
16.24000 154.000
16.26000 147.000
16.28000 165.000
16.30000 170.000
16.32000 166.000
16.34000 157.000
16.36000 170.000
16.38000 172.000
16.40000 158.000
16.42000 137.000
16.44000 158.000
16.46000 151.000
16.48000 163.000
16.50000 157.000
16.52000 158.000
16.54000 151.000
16.56000 172.000
16.58000 145.000
16.60000 160.000
16.62000 167.000
16.64000 157.000
16.66000 141.000
16.68000 162.000
16.70000 162.000
16.72000 167.000
16.74000 142.000
16.76000 165.000
16.78000 147.000
16.80000 168.000
16.82000 157.000
16.84000 160.000
16.86000 150.000
16.88000 181.000
16.90000 136.000
16.92000 143.000
16.94000 146.000
16.96000 144.000
16.98000 157.000
17.00000 148.000
17.02000 129.000
17.04000 147.000
17.06000 121.000
17.08000 149.000
17.10000 158.000
17.12000 135.000
17.14000 153.000
17.16000 145.000
17.18000 139.000
17.20000 174.000
17.22000 143.000
17.24000 160.000
17.26000 143.000
17.28000 141.000
17.30000 162.000
17.32000 160.000
17.34000 152.000
17.36000 201.000
17.38000 141.000
17.40000 148.000
17.42000 172.000
17.44000 174.000
17.46000 170.000
17.48000 149.000
17.50000 183.000
17.52000 169.000
17.54000 186.000
17.56000 160.000
17.58000 145.000
17.60000 155.000
17.62000 141.000
17.64000 160.000
17.66000 149.000
17.68000 128.000
17.70000 139.000
17.72000 151.000
17.74000 144.000
17.76000 140.000
17.78000 138.000
17.80000 146.000
17.82000 151.000
17.84000 159.000
17.86000 139.000
17.88000 153.000
17.90000 149.000
17.92000 152.000
17.94000 149.000
17.96000 153.000
17.98000 148.000
18.00000 139.000
18.02000 159.000
18.04000 167.000
18.06000 147.000
18.08000 152.000
18.10000 141.000
18.12000 172.000
18.14000 164.000
18.16000 148.000
18.18000 146.000
18.20000 159.000
18.22000 171.000
18.24000 169.000
18.26000 155.000
18.28000 164.000
18.30000 120.000
18.32000 154.000
18.34000 156.000
18.36000 172.000
18.38000 155.000
18.40000 168.000
18.42000 133.000
18.44000 146.000
18.46000 136.000
18.48000 169.000
18.50000 152.000
18.52000 141.000
18.54000 155.000
18.56000 147.000
18.58000 143.000
18.60000 159.000
18.62000 152.000
18.64000 151.000
18.66000 133.000
18.68000 142.000
18.70000 166.000
18.72000 142.000
18.74000 160.000
18.76000 143.000
18.78000 171.000
18.80000 133.000
18.82000 135.000
18.84000 140.000
18.86000 129.000
18.88000 141.000
18.90000 158.000
18.92000 137.000
18.94000 181.000
18.96000 147.000
18.98000 149.000
19.00000 114.000
19.02000 144.000
19.04000 140.000
19.06000 130.000
19.08000 161.000
19.10000 156.000
19.12000 156.000
19.14000 160.000
19.16000 141.000
19.18000 157.000
19.20000 136.000
19.22000 156.000
19.24000 141.000
19.26000 131.000
19.28000 155.000
19.30000 168.000
19.32000 164.000
19.34000 134.000
19.36000 141.000
19.38000 147.000
19.40000 146.000
19.42000 172.000
19.44000 152.000
19.46000 154.000
19.48000 151.000
19.50000 157.000
19.52000 154.000
19.54000 143.000
19.56000 162.000
19.58000 165.000
19.60000 163.000
19.62000 152.000
19.64000 140.000
19.66000 141.000
19.68000 135.000
19.70000 145.000
19.72000 150.000
19.74000 148.000
19.76000 147.000
19.78000 144.000
19.80000 139.000
19.82000 149.000
19.84000 136.000
19.86000 151.000
19.88000 155.000
19.90000 175.000
19.92000 145.000
19.94000 132.000
19.96000 153.000
19.98000 153.000
20.00000 137.000
20.02000 160.000
20.04000 151.000
20.06000 154.000
20.08000 147.000
20.10000 148.000
20.12000 154.000
20.14000 169.000
20.16000 160.000
20.18000 140.000
20.20000 181.000
20.22000 146.000
20.24000 149.000
20.26000 140.000
20.28000 170.000
20.30000 168.000
20.32000 156.000
20.34000 148.000
20.36000 185.000
20.38000 159.000
20.40000 140.000
20.42000 171.000
20.44000 164.000
20.46000 160.000
20.48000 173.000
20.50000 188.000
20.52000 190.000
20.54000 170.000
20.56000 180.000
20.58000 208.000
20.60000 198.000
20.62000 188.000
20.64000 168.000
20.66000 214.000
20.68000 214.000
20.70000 210.000
20.72000 202.000
20.74000 172.000
20.76000 189.000
20.78000 190.000
20.80000 196.000
20.82000 173.000
20.84000 171.000
20.86000 203.000
20.88000 163.000
20.90000 170.000
20.92000 170.000
20.94000 198.000
20.96000 205.000
20.98000 193.000
21.00000 178.000
21.02000 194.000
21.04000 164.000
21.06000 158.000
21.08000 170.000
21.10000 156.000
21.12000 138.000
21.14000 147.000
21.16000 162.000
21.18000 156.000
21.20000 148.000
21.22000 157.000
21.24000 155.000
21.26000 163.000
21.28000 165.000
21.30000 164.000
21.32000 154.000
21.34000 172.000
21.36000 160.000
21.38000 167.000
21.40000 166.000
21.42000 177.000
21.44000 158.000
21.46000 176.000
21.48000 161.000
21.50000 191.000
21.52000 170.000
21.54000 153.000
21.56000 143.000
21.58000 164.000
21.60000 160.000
21.62000 184.000
21.64000 164.000
21.66000 158.000
21.68000 187.000
21.70000 171.000
21.72000 170.000
21.74000 178.000
21.76000 189.000
21.78000 161.000
21.80000 194.000
21.82000 172.000
21.84000 202.000
21.86000 186.000
21.88000 152.000
21.90000 174.000
21.92000 188.000
21.94000 191.000
21.96000 185.000
21.98000 182.000
22.00000 203.000
22.02000 182.000
22.04000 156.000
22.06000 183.000
22.08000 186.000
22.10000 171.000
22.12000 192.000
22.14000 162.000
22.16000 173.000
22.18000 170.000
22.20000 168.000
22.22000 183.000
22.24000 186.000
22.26000 208.000
22.28000 195.000
22.30000 199.000
22.32000 220.000
22.34000 193.000
22.36000 215.000
22.38000 226.000
22.40000 232.000
22.42000 207.000
22.44000 239.000
22.46000 211.000
22.48000 222.000
22.50000 218.000
22.52000 220.000
22.54000 209.000
22.56000 210.000
22.58000 213.000
22.60000 175.000
22.62000 197.000
22.64000 188.000
22.66000 212.000
22.68000 210.000
22.70000 214.000
22.72000 196.000
22.74000 219.000
22.76000 239.000
22.78000 219.000
22.80000 242.000
22.82000 261.000
22.84000 281.000
22.86000 310.000
22.88000 329.000
22.90000 312.000
22.92000 327.000
22.94000 346.000
22.96000 327.000
22.98000 368.000
23.00000 358.000
23.02000 395.000
23.04000 380.000
23.06000 425.000
23.08000 395.000
23.10000 430.000
23.12000 367.000
23.14000 351.000
23.16000 377.000
23.18000 325.000
23.20000 308.000
23.22000 256.000
23.24000 267.000
23.26000 256.000
23.28000 215.000
23.30000 222.000
23.32000 210.000
23.34000 198.000
23.36000 223.000
23.38000 231.000
23.40000 225.000
23.42000 220.000
23.44000 203.000
23.46000 223.000
23.48000 227.000
23.50000 240.000
23.52000 212.000
23.54000 206.000
23.56000 214.000
23.58000 228.000
23.60000 199.000
23.62000 198.000
23.64000 213.000
23.66000 220.000
23.68000 221.000
23.70000 192.000
23.72000 199.000
23.74000 178.000
23.76000 211.000
23.78000 200.000
23.80000 216.000
23.82000 207.000
23.84000 191.000
23.86000 186.000
23.88000 198.000
23.90000 253.000
23.92000 260.000
23.94000 270.000
23.96000 284.000
23.98000 305.000
24.00000 308.000
24.02000 317.000
24.04000 355.000
24.06000 426.000
24.08000 520.000
24.10000 594.000
24.12000 758.000
24.14000 912.000
24.16000 1092.000
24.18000 1275.000
24.20000 1533.000
24.22000 1575.000
24.24000 1525.000
24.26000 1412.000
24.28000 1289.000
24.30000 988.000
24.32000 730.000
24.34000 589.000
24.36000 423.000
24.38000 385.000
24.40000 311.000
24.42000 293.000
24.44000 252.000
24.46000 270.000
24.48000 194.000
24.50000 245.000
24.52000 238.000
24.54000 217.000
24.56000 208.000
24.58000 226.000
24.60000 225.000
24.62000 226.000
24.64000 220.000
24.66000 236.000
24.68000 213.000
24.70000 189.000
24.72000 210.000
24.74000 190.000
24.76000 211.000
24.78000 189.000
24.80000 215.000
24.82000 200.000
24.84000 199.000
24.86000 180.000
24.88000 194.000
24.90000 189.000
24.92000 188.000
24.94000 200.000
24.96000 178.000
24.98000 212.000
25.00000 210.000
25.02000 197.000
25.04000 211.000
25.06000 212.000
25.08000 203.000
25.10000 219.000
25.12000 218.000
25.14000 219.000
25.16000 202.000
25.18000 216.000
25.20000 212.000
25.22000 221.000
25.24000 201.000
25.26000 188.000
25.28000 197.000
25.30000 224.000
25.32000 196.000
25.34000 199.000
25.36000 224.000
25.38000 230.000
25.40000 269.000
25.42000 262.000
25.44000 306.000
25.46000 329.000
25.48000 404.000
25.50000 443.000
25.52000 526.000
25.54000 547.000
25.56000 587.000
25.58000 584.000
25.60000 552.000
25.62000 514.000
25.64000 429.000
25.66000 391.000
25.68000 333.000
25.70000 279.000
25.72000 276.000
25.74000 237.000
25.76000 204.000
25.78000 218.000
25.80000 199.000
25.82000 178.000
25.84000 204.000
25.86000 184.000
25.88000 222.000
25.90000 183.000
25.92000 201.000
25.94000 200.000
25.96000 225.000
25.98000 175.000
26.00000 190.000
26.02000 174.000
26.04000 203.000
26.06000 192.000
26.08000 206.000
26.10000 208.000
26.12000 185.000
26.14000 197.000
26.16000 175.000
26.18000 188.000
26.20000 200.000
26.22000 173.000
26.24000 181.000
26.26000 164.000
26.28000 166.000
26.30000 178.000
26.32000 161.000
26.34000 182.000
26.36000 154.000
26.38000 158.000
26.40000 186.000
26.42000 172.000
26.44000 215.000
26.46000 213.000
26.48000 205.000
26.50000 239.000
26.52000 219.000
26.54000 261.000
26.56000 290.000
26.58000 303.000
26.60000 281.000
26.62000 282.000
26.64000 285.000
26.66000 290.000
26.68000 287.000
26.70000 283.000
26.72000 249.000
26.74000 266.000
26.76000 248.000
26.78000 201.000
26.80000 206.000
26.82000 197.000
26.84000 198.000
26.86000 182.000
26.88000 179.000
26.90000 177.000
26.92000 171.000
26.94000 158.000
26.96000 196.000
26.98000 163.000
27.00000 175.000
27.02000 182.000
27.04000 154.000
27.06000 165.000
27.08000 155.000
27.10000 186.000
27.12000 171.000
27.14000 192.000
27.16000 168.000
27.18000 176.000
27.20000 191.000
27.22000 200.000
27.24000 219.000
27.26000 188.000
27.28000 209.000
27.30000 225.000
27.32000 230.000
27.34000 273.000
27.36000 262.000
27.38000 280.000
27.40000 289.000
27.42000 332.000
27.44000 324.000
27.46000 310.000
27.48000 336.000
27.50000 324.000
27.52000 329.000
27.54000 280.000
27.56000 281.000
27.58000 278.000
27.60000 271.000
27.62000 264.000
27.64000 254.000
27.66000 312.000
27.68000 285.000
27.70000 298.000
27.72000 312.000
27.74000 326.000
27.76000 321.000
27.78000 287.000
27.80000 315.000
27.82000 307.000
27.84000 276.000
27.86000 247.000
27.88000 254.000
27.90000 265.000
27.92000 245.000
27.94000 235.000
27.96000 252.000
27.98000 220.000
28.00000 195.000
28.02000 231.000
28.04000 214.000
28.06000 204.000
28.08000 234.000
28.10000 226.000
28.12000 245.000
28.14000 233.000
28.16000 257.000
28.18000 280.000
28.20000 264.000
28.22000 279.000
28.24000 286.000
28.26000 289.000
28.28000 286.000
28.30000 286.000
28.32000 266.000
28.34000 279.000
28.36000 244.000
28.38000 235.000
28.40000 243.000
28.42000 202.000
28.44000 218.000
28.46000 185.000
28.48000 155.000
28.50000 202.000
28.52000 176.000
28.54000 187.000
28.56000 167.000
28.58000 183.000
28.60000 191.000
28.62000 146.000
28.64000 156.000
28.66000 172.000
28.68000 156.000
28.70000 159.000
28.72000 156.000
28.74000 161.000
28.76000 150.000
28.78000 162.000
28.80000 177.000
28.82000 180.000
28.84000 176.000
28.86000 158.000
28.88000 159.000
28.90000 162.000
28.92000 167.000
28.94000 186.000
28.96000 191.000
28.98000 159.000
29.00000 194.000
29.02000 187.000
29.04000 174.000
29.06000 174.000
29.08000 216.000
29.10000 189.000
29.12000 204.000
29.14000 188.000
29.16000 199.000
29.18000 191.000
29.20000 181.000
29.22000 211.000
29.24000 206.000
29.26000 239.000
29.28000 186.000
29.30000 220.000
29.32000 204.000
29.34000 206.000
29.36000 198.000
29.38000 253.000
29.40000 211.000
29.42000 211.000
29.44000 243.000
29.46000 220.000
29.48000 254.000
29.50000 248.000
29.52000 262.000
29.54000 287.000
29.56000 308.000
29.58000 274.000
29.60000 333.000
29.62000 334.000
29.64000 308.000
29.66000 345.000
29.68000 357.000
29.70000 346.000
29.72000 365.000
29.74000 376.000
29.76000 382.000
29.78000 349.000
29.80000 325.000
29.82000 308.000
29.84000 292.000
29.86000 256.000
29.88000 258.000
29.90000 251.000
29.92000 235.000
29.94000 225.000
29.96000 213.000
29.98000 208.000
30.00000 215.000
30.02000 214.000
30.04000 236.000
30.06000 204.000
30.08000 169.000
30.10000 194.000
30.12000 198.000
30.14000 192.000
30.16000 180.000
30.18000 165.000
30.20000 182.000
30.22000 175.000
30.24000 189.000
30.26000 191.000
30.28000 195.000
30.30000 190.000
30.32000 212.000
30.34000 206.000
30.36000 205.000
30.38000 210.000
30.40000 216.000
30.42000 222.000
30.44000 253.000
30.46000 256.000
30.48000 259.000
30.50000 272.000
30.52000 278.000
30.54000 304.000
30.56000 316.000
30.58000 355.000
30.60000 354.000
30.62000 412.000
30.64000 419.000
30.66000 403.000
30.68000 474.000
30.70000 501.000
30.72000 592.000
30.74000 595.000
30.76000 700.000
30.78000 804.000
30.80000 966.000
30.82000 1201.000
30.84000 1553.000
30.86000 1937.000
30.88000 2620.000
30.90000 3475.000
30.92000 4457.000
30.94000 5466.000
30.96000 6488.000
30.98000 7060.000
31.00000 7110.000
31.02000 6783.000
31.04000 5958.000
31.06000 4793.000
31.08000 3643.000
31.10000 2756.000
31.12000 1910.000
31.14000 1407.000
31.16000 1008.000
31.18000 790.000
31.20000 677.000
31.22000 579.000
31.24000 516.000
31.26000 468.000
31.28000 454.000
31.30000 393.000
31.32000 347.000
31.34000 370.000
31.36000 325.000
31.38000 336.000
31.40000 299.000
31.42000 278.000
31.44000 267.000
31.46000 277.000
31.48000 262.000
31.50000 285.000
31.52000 253.000
31.54000 278.000
31.56000 239.000
31.58000 252.000
31.60000 246.000
31.62000 241.000
31.64000 226.000
31.66000 244.000
31.68000 218.000
31.70000 215.000
31.72000 229.000
31.74000 242.000
31.76000 220.000
31.78000 223.000
31.80000 243.000
31.82000 248.000
31.84000 248.000
31.86000 208.000
31.88000 214.000
31.90000 236.000
31.92000 237.000
31.94000 242.000
31.96000 230.000
31.98000 218.000
32.00000 260.000
32.02000 231.000
32.04000 236.000
32.06000 253.000
32.08000 239.000
32.10000 253.000
32.12000 233.000
32.14000 262.000
32.16000 290.000
32.18000 347.000
32.20000 389.000
32.22000 454.000
32.24000 478.000
32.26000 566.000
32.28000 635.000
32.30000 726.000
32.32000 798.000
32.34000 837.000
32.36000 919.000
32.38000 871.000
32.40000 846.000
32.42000 826.000
32.44000 753.000
32.46000 827.000
32.48000 773.000
32.50000 745.000
32.52000 769.000
32.54000 737.000
32.56000 709.000
32.58000 740.000
32.60000 686.000
32.62000 650.000
32.64000 567.000
32.66000 490.000
32.68000 428.000
32.70000 395.000
32.72000 333.000
32.74000 294.000
32.76000 266.000
32.78000 266.000
32.80000 257.000
32.82000 233.000
32.84000 237.000
32.86000 251.000
32.88000 278.000
32.90000 244.000
32.92000 236.000
32.94000 285.000
32.96000 251.000
32.98000 275.000
33.00000 271.000
33.02000 297.000
33.04000 249.000
33.06000 247.000
33.08000 209.000
33.10000 196.000
33.12000 184.000
33.14000 168.000
33.16000 162.000
33.18000 157.000
33.20000 135.000
33.22000 184.000
33.24000 204.000
33.26000 152.000
33.28000 170.000
33.30000 193.000
33.32000 204.000
33.34000 193.000
33.36000 180.000
33.38000 211.000
33.40000 202.000
33.42000 193.000
33.44000 201.000
33.46000 184.000
33.48000 197.000
33.50000 189.000
33.52000 151.000
33.54000 144.000
33.56000 135.000
33.58000 131.000
33.60000 147.000
33.62000 140.000
33.64000 119.000
33.66000 134.000
33.68000 146.000
33.70000 117.000
33.72000 134.000
33.74000 116.000
33.76000 131.000
33.78000 127.000
33.80000 123.000
33.82000 109.000
33.84000 108.000
33.86000 122.000
33.88000 109.000
33.90000 119.000
33.92000 153.000
33.94000 132.000
33.96000 114.000
33.98000 121.000
34.00000 124.000
34.02000 130.000
34.04000 134.000
34.06000 130.000
34.08000 114.000
34.10000 107.000
34.12000 121.000
34.14000 116.000
34.16000 117.000
34.18000 101.000
34.20000 132.000
34.22000 112.000
34.24000 135.000
34.26000 111.000
34.28000 94.000
34.30000 101.000
34.32000 135.000
34.34000 125.000
34.36000 158.000
34.38000 117.000
34.40000 124.000
34.42000 142.000
34.44000 156.000
34.46000 139.000
34.48000 156.000
34.50000 145.000
34.52000 165.000
34.54000 160.000
34.56000 180.000
34.58000 167.000
34.60000 210.000
34.62000 223.000
34.64000 215.000
34.66000 236.000
34.68000 232.000
34.70000 244.000
34.72000 263.000
34.74000 234.000
34.76000 276.000
34.78000 256.000
34.80000 245.000
34.82000 256.000
34.84000 256.000
34.86000 233.000
34.88000 257.000
34.90000 216.000
34.92000 204.000
34.94000 212.000
34.96000 200.000
34.98000 199.000
35.00000 179.000
35.02000 159.000
35.04000 145.000
35.06000 159.000
35.08000 166.000
35.10000 159.000
35.12000 172.000
35.14000 148.000
35.16000 168.000
35.18000 169.000
35.20000 167.000
35.22000 179.000
35.24000 164.000
35.26000 210.000
35.28000 232.000
35.30000 226.000
35.32000 269.000
35.34000 243.000
35.36000 278.000
35.38000 293.000
35.40000 277.000
35.42000 315.000
35.44000 298.000
35.46000 274.000
35.48000 251.000
35.50000 300.000
35.52000 265.000
35.54000 272.000
35.56000 237.000
35.58000 182.000
35.60000 184.000
35.62000 176.000
35.64000 134.000
35.66000 163.000
35.68000 168.000
35.70000 150.000
35.72000 171.000
35.74000 174.000
35.76000 152.000
35.78000 147.000
35.80000 195.000
35.82000 187.000
35.84000 195.000
35.86000 201.000
35.88000 229.000
35.90000 216.000
35.92000 266.000
35.94000 250.000
35.96000 233.000
35.98000 227.000
36.00000 280.000
36.02000 263.000
36.04000 213.000
36.06000 196.000
36.08000 167.000
36.10000 189.000
36.12000 158.000
36.14000 145.000
36.16000 136.000
36.18000 126.000
36.20000 149.000
36.22000 163.000
36.24000 151.000
36.26000 151.000
36.28000 148.000
36.30000 163.000
36.32000 145.000
36.34000 155.000
36.36000 166.000
36.38000 193.000
36.40000 199.000
36.42000 210.000
36.44000 188.000
36.46000 223.000
36.48000 177.000
36.50000 189.000
36.52000 202.000
36.54000 189.000
36.56000 228.000
36.58000 185.000
36.60000 186.000
36.62000 191.000
36.64000 183.000
36.66000 213.000
36.68000 176.000
36.70000 182.000
36.72000 163.000
36.74000 141.000
36.76000 173.000
36.78000 141.000
36.80000 144.000
36.82000 146.000
36.84000 153.000
36.86000 134.000
36.88000 125.000
36.90000 130.000
36.92000 134.000
36.94000 149.000
36.96000 121.000
36.98000 117.000
37.00000 124.000
37.02000 131.000
37.04000 125.000
37.06000 137.000
37.08000 147.000
37.10000 125.000
37.12000 120.000
37.14000 109.000
37.16000 132.000
37.18000 143.000
37.20000 125.000
37.22000 139.000
37.24000 158.000
37.26000 132.000
37.28000 144.000
37.30000 143.000
37.32000 170.000
37.34000 160.000
37.36000 138.000
37.38000 171.000
37.40000 154.000
37.42000 149.000
37.44000 158.000
37.46000 147.000
37.48000 159.000
37.50000 155.000
37.52000 157.000
37.54000 152.000
37.56000 137.000
37.58000 132.000
37.60000 139.000
37.62000 139.000
37.64000 137.000
37.66000 127.000
37.68000 135.000
37.70000 148.000
37.72000 108.000
37.74000 126.000
37.76000 132.000
37.78000 125.000
37.80000 128.000
37.82000 112.000
37.84000 145.000
37.86000 122.000
37.88000 119.000
37.90000 144.000
37.92000 150.000
37.94000 125.000
37.96000 143.000
37.98000 132.000
38.00000 127.000
38.02000 140.000
38.04000 127.000
38.06000 136.000
38.08000 114.000
38.10000 110.000
38.12000 129.000
38.14000 110.000
38.16000 129.000
38.18000 146.000
38.20000 128.000
38.22000 132.000
38.24000 129.000
38.26000 109.000
38.28000 112.000
38.30000 109.000
38.32000 103.000
38.34000 123.000
38.36000 125.000
38.38000 144.000
38.40000 131.000
38.42000 184.000
38.44000 168.000
38.46000 162.000
38.48000 208.000
38.50000 171.000
38.52000 216.000
38.54000 230.000
38.56000 188.000
38.58000 224.000
38.60000 230.000
38.62000 195.000
38.64000 175.000
38.66000 151.000
38.68000 153.000
38.70000 147.000
38.72000 141.000
38.74000 125.000
38.76000 112.000
38.78000 121.000
38.80000 117.000
38.82000 122.000
38.84000 128.000
38.86000 114.000
38.88000 137.000
38.90000 116.000
38.92000 132.000
38.94000 119.000
38.96000 148.000
38.98000 125.000
39.00000 121.000
39.02000 133.000
39.04000 121.000
39.06000 116.000
39.08000 121.000
39.10000 108.000
39.12000 111.000
39.14000 113.000
39.16000 94.000
39.18000 114.000
39.20000 133.000
39.22000 104.000
39.24000 115.000
39.26000 119.000
39.28000 133.000
39.30000 120.000
39.32000 137.000
39.34000 136.000
39.36000 143.000
39.38000 143.000
39.40000 158.000
39.42000 165.000
39.44000 157.000
39.46000 151.000
39.48000 178.000
39.50000 161.000
39.52000 165.000
39.54000 163.000
39.56000 164.000
39.58000 163.000
39.60000 168.000
39.62000 155.000
39.64000 141.000
39.66000 137.000
39.68000 155.000
39.70000 150.000
39.72000 149.000
39.74000 137.000
39.76000 146.000
39.78000 153.000
39.80000 151.000
39.82000 151.000
39.84000 143.000
39.86000 173.000
39.88000 144.000
39.90000 163.000
39.92000 136.000
39.94000 130.000
39.96000 155.000
39.98000 130.000
40.00000 175.000
40.02000 152.000
40.04000 142.000
40.06000 164.000
40.08000 193.000
40.10000 183.000
40.12000 220.000
40.14000 226.000
40.16000 226.000
40.18000 246.000
40.20000 290.000
40.22000 309.000
40.24000 386.000
40.26000 369.000
40.28000 455.000
40.30000 426.000
40.32000 503.000
40.34000 454.000
40.36000 490.000
40.38000 526.000
40.40000 443.000
40.42000 491.000
40.44000 477.000
40.46000 375.000
40.48000 412.000
40.50000 374.000
40.52000 346.000
40.54000 328.000
40.56000 326.000
40.58000 284.000
40.60000 293.000
40.62000 246.000
40.64000 291.000
40.66000 237.000
40.68000 297.000
40.70000 306.000
40.72000 293.000
40.74000 324.000
40.76000 352.000
40.78000 371.000
40.80000 416.000
40.82000 415.000
40.84000 394.000
40.86000 443.000
40.88000 424.000
40.90000 437.000
40.92000 452.000
40.94000 413.000
40.96000 465.000
40.98000 386.000
41.00000 425.000
41.02000 381.000
41.04000 383.000
41.06000 347.000
41.08000 352.000
41.10000 343.000
41.12000 312.000
41.14000 281.000
41.16000 269.000
41.18000 272.000
41.20000 283.000
41.22000 244.000
41.24000 245.000
41.26000 255.000
41.28000 238.000
41.30000 236.000
41.32000 246.000
41.34000 213.000
41.36000 239.000
41.38000 219.000
41.40000 229.000
41.42000 204.000
41.44000 215.000
41.46000 199.000
41.48000 183.000
41.50000 171.000
41.52000 196.000
41.54000 161.000
41.56000 165.000
41.58000 168.000
41.60000 171.000
41.62000 161.000
41.64000 169.000
41.66000 150.000
41.68000 166.000
41.70000 149.000
41.72000 143.000
41.74000 167.000
41.76000 161.000
41.78000 173.000
41.80000 138.000
41.82000 135.000
41.84000 147.000
41.86000 131.000
41.88000 157.000
41.90000 166.000
41.92000 156.000
41.94000 164.000
41.96000 159.000
41.98000 143.000
42.00000 161.000
42.02000 148.000
42.04000 159.000
42.06000 156.000
42.08000 193.000
42.10000 166.000
42.12000 151.000
42.14000 160.000
42.16000 175.000
42.18000 155.000
42.20000 168.000
42.22000 154.000
42.24000 155.000
42.26000 175.000
42.28000 163.000
42.30000 158.000
42.32000 168.000
42.34000 163.000
42.36000 164.000
42.38000 191.000
42.40000 196.000
42.42000 207.000
42.44000 205.000
42.46000 246.000
42.48000 242.000
42.50000 279.000
42.52000 330.000
42.54000 337.000
42.56000 346.000
42.58000 461.000
42.60000 471.000
42.62000 557.000
42.64000 568.000
42.66000 648.000
42.68000 592.000
42.70000 587.000
42.72000 564.000
42.74000 456.000
42.76000 411.000
42.78000 376.000
42.80000 286.000
42.82000 240.000
42.84000 272.000
42.86000 235.000
42.88000 199.000
42.90000 186.000
42.92000 190.000
42.94000 198.000
42.96000 163.000
42.98000 184.000
43.00000 177.000
43.02000 171.000
43.04000 138.000
43.06000 168.000
43.08000 157.000
43.10000 151.000
43.12000 158.000
43.14000 163.000
43.16000 164.000
43.18000 150.000
43.20000 145.000
43.22000 146.000
43.24000 160.000
43.26000 156.000
43.28000 166.000
43.30000 178.000
43.32000 140.000
43.34000 167.000
43.36000 136.000
43.38000 131.000
43.40000 150.000
43.42000 128.000
43.44000 146.000
43.46000 149.000
43.48000 139.000
43.50000 152.000
43.52000 159.000
43.54000 136.000
43.56000 152.000
43.58000 142.000
43.60000 150.000
43.62000 162.000
43.64000 160.000
43.66000 169.000
43.68000 174.000
43.70000 177.000
43.72000 196.000
43.74000 163.000
43.76000 168.000
43.78000 190.000
43.80000 194.000
43.82000 184.000
43.84000 155.000
43.86000 173.000
43.88000 203.000
43.90000 189.000
43.92000 202.000
43.94000 212.000
43.96000 207.000
43.98000 184.000
44.00000 227.000
44.02000 188.000
44.04000 225.000
44.06000 233.000
44.08000 214.000
44.10000 215.000
44.12000 220.000
44.14000 221.000
44.16000 220.000
44.18000 206.000
44.20000 229.000
44.22000 209.000
44.24000 196.000
44.26000 186.000
44.28000 175.000
44.30000 182.000
44.32000 188.000
44.34000 202.000
44.36000 207.000
44.38000 174.000
44.40000 194.000
44.42000 175.000
44.44000 155.000
44.46000 142.000
44.48000 150.000
44.50000 148.000
44.52000 150.000
44.54000 152.000
44.56000 142.000
44.58000 147.000
44.60000 142.000
44.62000 124.000
44.64000 117.000
44.66000 110.000
44.68000 120.000
44.70000 109.000
44.72000 140.000
44.74000 112.000
44.76000 127.000
44.78000 122.000
44.80000 117.000
44.82000 126.000
44.84000 138.000
44.86000 155.000
44.88000 149.000
44.90000 119.000
44.92000 149.000
44.94000 149.000
44.96000 142.000
44.98000 155.000
45.00000 151.000
45.02000 144.000
45.04000 144.000
45.06000 140.000
45.08000 132.000
45.10000 124.000
45.12000 124.000
45.14000 116.000
45.16000 120.000
45.18000 121.000
45.20000 131.000
45.22000 121.000
45.24000 121.000
45.26000 130.000
45.28000 117.000
45.30000 98.000
45.32000 113.000
45.34000 114.000
45.36000 114.000
45.38000 113.000
45.40000 126.000
45.42000 114.000
45.44000 106.000
45.46000 118.000
45.48000 121.000
45.50000 125.000
45.52000 124.000
45.54000 107.000
45.56000 121.000
45.58000 121.000
45.60000 131.000
45.62000 128.000
45.64000 135.000
45.66000 127.000
45.68000 144.000
45.70000 148.000
45.72000 143.000
45.74000 135.000
45.76000 161.000
45.78000 149.000
45.80000 150.000
45.82000 160.000
45.84000 162.000
45.86000 168.000
45.88000 175.000
45.90000 202.000
45.92000 170.000
45.94000 180.000
45.96000 208.000
45.98000 232.000
46.00000 267.000
46.02000 306.000
46.04000 362.000
46.06000 410.000
46.08000 481.000
46.10000 546.000
46.12000 555.000
46.14000 547.000
46.16000 541.000
46.18000 481.000
46.20000 404.000
46.22000 364.000
46.24000 337.000
46.26000 302.000
46.28000 229.000
46.30000 206.000
46.32000 206.000
46.34000 200.000
46.36000 169.000
46.38000 154.000
46.40000 152.000
46.42000 162.000
46.44000 133.000
46.46000 140.000
46.48000 149.000
46.50000 136.000
46.52000 147.000
46.54000 145.000
46.56000 135.000
46.58000 132.000
46.60000 120.000
46.62000 107.000
46.64000 121.000
46.66000 118.000
46.68000 143.000
46.70000 107.000
46.72000 129.000
46.74000 134.000
46.76000 145.000
46.78000 120.000
46.80000 131.000
46.82000 131.000
46.84000 148.000
46.86000 129.000
46.88000 154.000
46.90000 139.000
46.92000 166.000
46.94000 162.000
46.96000 170.000
46.98000 194.000
47.00000 220.000
47.02000 254.000
47.04000 241.000
47.06000 290.000
47.08000 341.000
47.10000 328.000
47.12000 318.000
47.14000 268.000
47.16000 307.000
47.18000 259.000
47.20000 227.000
47.22000 220.000
47.24000 201.000
47.26000 151.000
47.28000 179.000
47.30000 152.000
47.32000 143.000
47.34000 129.000
47.36000 115.000
47.38000 116.000
47.40000 116.000
47.42000 136.000
47.44000 112.000
47.46000 143.000
47.48000 127.000
47.50000 119.000
47.52000 118.000
47.54000 102.000
47.56000 126.000
47.58000 110.000
47.60000 116.000
47.62000 100.000
47.64000 99.000
47.66000 124.000
47.68000 119.000
47.70000 147.000
47.72000 119.000
47.74000 129.000
47.76000 121.000
47.78000 132.000
47.80000 123.000
47.82000 124.000
47.84000 120.000
47.86000 116.000
47.88000 119.000
47.90000 120.000
47.92000 117.000
47.94000 125.000
47.96000 116.000
47.98000 114.000
48.00000 116.000
48.02000 106.000
48.04000 116.000
48.06000 120.000
48.08000 122.000
48.10000 104.000
48.12000 97.000
48.14000 129.000
48.16000 118.000
48.18000 105.000
48.20000 152.000
48.22000 113.000
48.24000 127.000
48.26000 120.000
48.28000 118.000
48.30000 125.000
48.32000 135.000
48.34000 140.000
48.36000 104.000
48.38000 125.000
48.40000 110.000
48.42000 101.000
48.44000 104.000
48.46000 119.000
48.48000 117.000
48.50000 96.000
48.52000 114.000
48.54000 120.000
48.56000 79.000
48.58000 120.000
48.60000 106.000
48.62000 116.000
48.64000 126.000
48.66000 117.000
48.68000 128.000
48.70000 126.000
48.72000 124.000
48.74000 121.000
48.76000 133.000
48.78000 127.000
48.80000 144.000
48.82000 136.000
48.84000 168.000
48.86000 163.000
48.88000 145.000
48.90000 133.000
48.92000 133.000
48.94000 138.000
48.96000 143.000
48.98000 126.000
49.00000 125.000
49.02000 133.000
49.04000 168.000
49.06000 150.000
49.08000 138.000
49.10000 151.000
49.12000 126.000
49.14000 138.000
49.16000 110.000
49.18000 143.000
49.20000 131.000
49.22000 136.000
49.24000 142.000
49.26000 139.000
49.28000 131.000
49.30000 141.000
49.32000 148.000
49.34000 154.000
49.36000 163.000
49.38000 143.000
49.40000 140.000
49.42000 182.000
49.44000 162.000
49.46000 156.000
49.48000 177.000
49.50000 189.000
49.52000 201.000
49.54000 247.000
49.56000 256.000
49.58000 306.000
49.60000 361.000
49.62000 382.000
49.64000 440.000
49.66000 444.000
49.68000 433.000
49.70000 438.000
49.72000 381.000
49.74000 361.000
49.76000 352.000
49.78000 306.000
49.80000 294.000
49.82000 259.000
49.84000 250.000
49.86000 179.000
49.88000 176.000
49.90000 160.000
49.92000 129.000
49.94000 178.000
49.96000 169.000
49.98000 180.000
50.00000 153.000
50.02000 154.000
50.04000 163.000
50.06000 170.000
50.08000 142.000
50.10000 177.000
50.12000 148.000
50.14000 167.000
50.16000 144.000
50.18000 181.000
50.20000 139.000
50.22000 148.000
50.24000 142.000
50.26000 144.000
50.28000 151.000
50.30000 149.000
50.32000 157.000
50.34000 133.000
50.36000 133.000
50.38000 143.000
50.40000 121.000
50.42000 124.000
50.44000 102.000
50.46000 117.000
50.48000 131.000
50.50000 114.000
50.52000 136.000
50.54000 117.000
50.56000 145.000
50.58000 135.000
50.60000 128.000
50.62000 168.000
50.64000 142.000
50.66000 158.000
50.68000 147.000
50.70000 152.000
50.72000 141.000
50.74000 144.000
50.76000 155.000
50.78000 164.000
50.80000 155.000
50.82000 142.000
50.84000 142.000
50.86000 150.000
50.88000 145.000
50.90000 129.000
50.92000 132.000
50.94000 133.000
50.96000 122.000
50.98000 106.000
51.00000 124.000
51.02000 98.000
51.04000 111.000
51.06000 113.000
51.08000 110.000
51.10000 98.000
51.12000 125.000
51.14000 93.000
51.16000 102.000
51.18000 96.000
51.20000 109.000
51.22000 109.000
51.24000 101.000
51.26000 111.000
51.28000 104.000
51.30000 117.000
51.32000 99.000
51.34000 104.000
51.36000 108.000
51.38000 106.000
51.40000 98.000
51.42000 92.000
51.44000 113.000
51.46000 108.000
51.48000 107.000
51.50000 108.000
51.52000 90.000
51.54000 123.000
51.56000 113.000
51.58000 111.000
51.60000 108.000
51.62000 112.000
51.64000 120.000
51.66000 115.000
51.68000 104.000
51.70000 120.000
51.72000 111.000
51.74000 118.000
51.76000 101.000
51.78000 127.000
51.80000 116.000
51.82000 104.000
51.84000 117.000
51.86000 110.000
51.88000 120.000
51.90000 94.000
51.92000 110.000
51.94000 114.000
51.96000 91.000
51.98000 97.000
52.00000 90.000
52.02000 90.000
52.04000 97.000
52.06000 91.000
52.08000 84.000
52.10000 93.000
52.12000 86.000
52.14000 91.000
52.16000 90.000
52.18000 100.000
52.20000 97.000
52.22000 83.000
52.24000 103.000
52.26000 106.000
52.28000 91.000
52.30000 106.000
52.32000 84.000
52.34000 98.000
52.36000 89.000
52.38000 106.000
52.40000 90.000
52.42000 105.000
52.44000 116.000
52.46000 122.000
52.48000 108.000
52.50000 127.000
52.52000 127.000
52.54000 122.000
52.56000 130.000
52.58000 125.000
52.60000 107.000
52.62000 127.000
52.64000 123.000
52.66000 114.000
52.68000 113.000
52.70000 103.000
52.72000 117.000
52.74000 128.000
52.76000 134.000
52.78000 144.000
52.80000 111.000
52.82000 118.000
52.84000 140.000
52.86000 104.000
52.88000 116.000
52.90000 124.000
52.92000 122.000
52.94000 117.000
52.96000 144.000
52.98000 114.000
53.00000 108.000
53.02000 126.000
53.04000 128.000
53.06000 115.000
53.08000 136.000
53.10000 139.000
53.12000 143.000
53.14000 122.000
53.16000 123.000
53.18000 130.000
53.20000 144.000
53.22000 155.000
53.24000 146.000
53.26000 155.000
53.28000 166.000
53.30000 128.000
53.32000 171.000
53.34000 136.000
53.36000 132.000
53.38000 127.000
53.40000 146.000
53.42000 135.000
53.44000 135.000
53.46000 135.000
53.48000 151.000
53.50000 163.000
53.52000 158.000
53.54000 180.000
53.56000 170.000
53.58000 202.000
53.60000 247.000
53.62000 255.000
53.64000 271.000
53.66000 311.000
53.68000 312.000
53.70000 288.000
53.72000 273.000
53.74000 260.000
53.76000 230.000
53.78000 224.000
53.80000 189.000
53.82000 189.000
53.84000 185.000
53.86000 149.000
53.88000 148.000
53.90000 145.000
53.92000 123.000
53.94000 126.000
53.96000 137.000
53.98000 115.000
54.00000 149.000
54.02000 106.000
54.04000 119.000
54.06000 119.000
54.08000 114.000
54.10000 116.000
54.12000 105.000
54.14000 116.000
54.16000 111.000
54.18000 93.000
54.20000 98.000
54.22000 93.000
54.24000 96.000
54.26000 91.000
54.28000 92.000
54.30000 87.000
54.32000 101.000
54.34000 91.000
54.36000 92.000
54.38000 98.000
54.40000 101.000
54.42000 94.000
54.44000 90.000
54.46000 90.000
54.48000 87.000
54.50000 105.000
54.52000 86.000
54.54000 87.000
54.56000 88.000
54.58000 102.000
54.60000 72.000
54.62000 74.000
54.64000 97.000
54.66000 104.000
54.68000 112.000
54.70000 95.000
54.72000 95.000
54.74000 87.000
54.76000 85.000
54.78000 106.000
54.80000 103.000
54.82000 108.000
54.84000 85.000
54.86000 99.000
54.88000 67.000
54.90000 109.000
54.92000 118.000
54.94000 90.000
54.96000 104.000
54.98000 84.000
55.00000 91.000
55.02000 89.000
55.04000 96.000
55.06000 100.000
55.08000 108.000
55.10000 82.000
55.12000 85.000
55.14000 96.000
55.16000 99.000
55.18000 94.000
55.20000 74.000
55.22000 68.000
55.24000 77.000
55.26000 91.000
55.28000 85.000
55.30000 64.000
55.32000 76.000
55.34000 90.000
55.36000 68.000
55.38000 75.000
55.40000 100.000
55.42000 86.000
55.44000 101.000
55.46000 99.000
55.48000 83.000
55.50000 81.000
55.52000 109.000
55.54000 82.000
55.56000 76.000
55.58000 93.000
55.60000 96.000
55.62000 75.000
55.64000 108.000
55.66000 97.000
55.68000 82.000
55.70000 75.000
55.72000 98.000
55.74000 105.000
55.76000 101.000
55.78000 105.000
55.80000 86.000
55.82000 84.000
55.84000 77.000
55.86000 78.000
55.88000 89.000
55.90000 78.000
55.92000 101.000
55.94000 81.000
55.96000 84.000
55.98000 84.000
56.00000 93.000
56.02000 84.000
56.04000 72.000
56.06000 83.000
56.08000 66.000
56.10000 81.000
56.12000 98.000
56.14000 87.000
56.16000 84.000
56.18000 88.000
56.20000 96.000
56.22000 85.000
56.24000 82.000
56.26000 83.000
56.28000 89.000
56.30000 90.000
56.32000 86.000
56.34000 98.000
56.36000 90.000
56.38000 70.000
56.40000 94.000
56.42000 83.000
56.44000 105.000
56.46000 94.000
56.48000 89.000
56.50000 97.000
56.52000 107.000
56.54000 99.000
56.56000 79.000
56.58000 99.000
56.60000 109.000
56.62000 122.000
56.64000 123.000
56.66000 120.000
56.68000 154.000
56.70000 137.000
56.72000 122.000
56.74000 131.000
56.76000 127.000
56.78000 152.000
56.80000 126.000
56.82000 156.000
56.84000 124.000
56.86000 127.000
56.88000 113.000
56.90000 125.000
56.92000 121.000
56.94000 123.000
56.96000 114.000
56.98000 113.000
57.00000 94.000
57.02000 116.000
57.04000 129.000
57.06000 94.000
57.08000 100.000
57.10000 109.000
57.12000 106.000
57.14000 99.000
57.16000 105.000
57.18000 97.000
57.20000 115.000
57.22000 110.000
57.24000 116.000
57.26000 105.000
57.28000 120.000
57.30000 118.000
57.32000 122.000
57.34000 115.000
57.36000 122.000
57.38000 115.000
57.40000 104.000
57.42000 94.000
57.44000 110.000
57.46000 96.000
57.48000 88.000
57.50000 86.000
57.52000 102.000
57.54000 97.000
57.56000 105.000
57.58000 95.000
57.60000 88.000
57.62000 81.000
57.64000 110.000
57.66000 122.000
57.68000 121.000
57.70000 103.000
57.72000 99.000
57.74000 118.000
57.76000 132.000
57.78000 132.000
57.80000 119.000
57.82000 133.000
57.84000 115.000
57.86000 142.000
57.88000 107.000
57.90000 91.000
57.92000 108.000
57.94000 115.000
57.96000 116.000
57.98000 109.000
58.00000 109.000
58.02000 99.000
58.04000 113.000
58.06000 101.000
58.08000 108.000
58.10000 93.000
58.12000 93.000
58.14000 96.000
58.16000 94.000
58.18000 83.000
58.20000 88.000
58.22000 96.000
58.24000 130.000
58.26000 105.000
58.28000 96.000
58.30000 103.000
58.32000 94.000
58.34000 121.000
58.36000 106.000
58.38000 120.000
58.40000 129.000
58.42000 142.000
58.44000 116.000
58.46000 156.000
58.48000 148.000
58.50000 155.000
58.52000 140.000
58.54000 187.000
58.56000 177.000
58.58000 181.000
58.60000 197.000
58.62000 178.000
58.64000 159.000
58.66000 200.000
58.68000 208.000
58.70000 223.000
58.72000 218.000
58.74000 269.000
58.76000 288.000
58.78000 335.000
58.80000 420.000
58.82000 486.000
58.84000 584.000
58.86000 656.000
58.88000 722.000
58.90000 755.000
58.92000 734.000
58.94000 709.000
58.96000 630.000
58.98000 565.000
59.00000 533.000
59.02000 479.000
59.04000 428.000
59.06000 369.000
59.08000 331.000
59.10000 260.000
59.12000 204.000
59.14000 179.000
59.16000 141.000
59.18000 111.000
59.20000 122.000
59.22000 111.000
59.24000 105.000
59.26000 102.000
59.28000 115.000
59.30000 88.000
59.32000 108.000
59.34000 106.000
59.36000 111.000
59.38000 123.000
59.40000 107.000
59.42000 109.000
59.44000 114.000
59.46000 121.000
59.48000 131.000
59.50000 118.000
59.52000 116.000
59.54000 129.000
59.56000 143.000
59.58000 128.000
59.60000 139.000
59.62000 127.000
59.64000 128.000
59.66000 147.000
59.68000 129.000
59.70000 114.000
59.72000 111.000
59.74000 108.000
59.76000 105.000
59.78000 110.000
59.80000 135.000
59.82000 87.000
59.84000 99.000
59.86000 86.000
59.88000 93.000
59.90000 121.000
59.92000 87.000
59.94000 105.000
59.96000 72.000
59.98000 77.000
60.00000 87.000
60.02000 85.000
60.04000 94.000
60.06000 85.000
60.08000 84.000
60.10000 86.000
60.12000 95.000
60.14000 109.000
60.16000 111.000
60.18000 90.000
60.20000 91.000
60.22000 98.000
60.24000 104.000
60.26000 129.000
60.28000 113.000
60.30000 121.000
60.32000 121.000
60.34000 127.000
60.36000 127.000
60.38000 113.000
60.40000 129.000
60.42000 123.000
60.44000 124.000
60.46000 128.000
60.48000 110.000
60.50000 114.000
60.52000 116.000
60.54000 125.000
60.56000 114.000
60.58000 96.000
60.60000 81.000
60.62000 107.000
60.64000 79.000
60.66000 85.000
60.68000 87.000
60.70000 74.000
60.72000 84.000
60.74000 94.000
60.76000 90.000
60.78000 74.000
60.80000 76.000
60.82000 65.000
60.84000 75.000
60.86000 78.000
60.88000 59.000
60.90000 83.000
60.92000 81.000
60.94000 75.000
60.96000 67.000
60.98000 68.000
61.00000 78.000
61.02000 62.000
61.04000 83.000
61.06000 95.000
61.08000 75.000
61.10000 67.000
61.12000 79.000
61.14000 88.000
61.16000 87.000
61.18000 63.000
61.20000 69.000
61.22000 84.000
61.24000 77.000
61.26000 75.000
61.28000 86.000
61.30000 73.000
61.32000 92.000
61.34000 97.000
61.36000 103.000
61.38000 101.000
61.40000 111.000
61.42000 98.000
61.44000 96.000
61.46000 98.000
61.48000 105.000
61.50000 111.000
61.52000 113.000
61.54000 92.000
61.56000 104.000
61.58000 101.000
61.60000 94.000
61.62000 109.000
61.64000 100.000
61.66000 105.000
61.68000 117.000
61.70000 124.000
61.72000 123.000
61.74000 120.000
61.76000 129.000
61.78000 136.000
61.80000 128.000
61.82000 126.000
61.84000 113.000
61.86000 111.000
61.88000 103.000
61.90000 117.000
61.92000 120.000
61.94000 96.000
61.96000 122.000
61.98000 124.000
62.00000 104.000
62.02000 111.000
62.04000 109.000
62.06000 111.000
62.08000 106.000
62.10000 90.000
62.12000 112.000
62.14000 101.000
62.16000 101.000
62.18000 103.000
62.20000 109.000
62.22000 104.000
62.24000 120.000
62.26000 95.000
62.28000 109.000
62.30000 124.000
62.32000 123.000
62.34000 90.000
62.36000 119.000
62.38000 110.000
62.40000 95.000
62.42000 133.000
62.44000 123.000
62.46000 105.000
62.48000 101.000
62.50000 105.000
62.52000 115.000
62.54000 119.000
62.56000 109.000
62.58000 114.000
62.60000 124.000
62.62000 123.000
62.64000 118.000
62.66000 123.000
62.68000 99.000
62.70000 114.000
62.72000 95.000
62.74000 105.000
62.76000 108.000
62.78000 95.000
62.80000 119.000
62.82000 110.000
62.84000 95.000
62.86000 76.000
62.88000 98.000
62.90000 101.000
62.92000 102.000
62.94000 85.000
62.96000 93.000
62.98000 106.000
63.00000 89.000
63.02000 78.000
63.04000 98.000
63.06000 92.000
63.08000 93.000
63.10000 95.000
63.12000 102.000
63.14000 95.000
63.16000 91.000
63.18000 83.000
63.20000 96.000
63.22000 105.000
63.24000 90.000
63.26000 95.000
63.28000 88.000
63.30000 91.000
63.32000 96.000
63.34000 109.000
63.36000 91.000
63.38000 109.000
63.40000 108.000
63.42000 94.000
63.44000 108.000
63.46000 116.000
63.48000 97.000
63.50000 99.000
63.52000 116.000
63.54000 88.000
63.56000 122.000
63.58000 127.000
63.60000 98.000
63.62000 113.000
63.64000 106.000
63.66000 104.000
63.68000 114.000
63.70000 97.000
63.72000 113.000
63.74000 104.000
63.76000 104.000
63.78000 116.000
63.80000 108.000
63.82000 110.000
63.84000 121.000
63.86000 114.000
63.88000 118.000
63.90000 90.000
63.92000 98.000
63.94000 136.000
63.96000 113.000
63.98000 130.000
64.00000 121.000
64.02000 124.000
64.04000 103.000
64.06000 111.000
64.08000 108.000
64.10000 112.000
64.12000 113.000
64.14000 112.000
64.16000 144.000
64.18000 112.000
64.20000 102.000
64.22000 107.000
64.24000 108.000
64.26000 121.000
64.28000 112.000
64.30000 99.000
64.32000 120.000
64.34000 102.000
64.36000 115.000
64.38000 132.000
64.40000 138.000
64.42000 122.000
64.44000 119.000
64.46000 124.000
64.48000 170.000
64.50000 144.000
64.52000 172.000
64.54000 225.000
64.56000 240.000
64.58000 280.000
64.60000 288.000
64.62000 313.000
64.64000 315.000
64.66000 289.000
64.68000 294.000
64.70000 252.000
64.72000 249.000
64.74000 210.000
64.76000 234.000
64.78000 221.000
64.80000 188.000
64.82000 202.000
64.84000 163.000
64.86000 171.000
64.88000 160.000
64.90000 147.000
64.92000 170.000
64.94000 113.000
64.96000 139.000
64.98000 114.000
65.00000 130.000
65.02000 107.000
65.04000 151.000
65.06000 157.000
65.08000 137.000
65.10000 155.000
65.12000 177.000
65.14000 188.000
65.16000 182.000
65.18000 171.000
65.20000 193.000
65.22000 197.000
65.24000 199.000
65.26000 180.000
65.28000 155.000
65.30000 180.000
65.32000 169.000
65.34000 151.000
65.36000 157.000
65.38000 144.000
65.40000 139.000
65.42000 141.000
65.44000 123.000
65.46000 131.000
65.48000 123.000
65.50000 117.000
65.52000 123.000
65.54000 113.000
65.56000 109.000
65.58000 102.000
65.60000 120.000
65.62000 115.000
65.64000 97.000
65.66000 98.000
65.68000 117.000
65.70000 118.000
65.72000 143.000
65.74000 112.000
65.76000 151.000
65.78000 122.000
65.80000 126.000
65.82000 142.000
65.84000 137.000
65.86000 141.000
65.88000 151.000
65.90000 137.000
65.92000 137.000
65.94000 140.000
65.96000 136.000
65.98000 126.000
66.00000 138.000
66.02000 123.000
66.04000 124.000
66.06000 143.000
66.08000 128.000
66.10000 117.000
66.12000 123.000
66.14000 99.000
66.16000 104.000
66.18000 114.000
66.20000 99.000
66.22000 111.000
66.24000 117.000
66.26000 98.000
66.28000 99.000
66.30000 109.000
66.32000 105.000
66.34000 100.000
66.36000 112.000
66.38000 122.000
66.40000 101.000
66.42000 87.000
66.44000 102.000
66.46000 96.000
66.48000 91.000
66.50000 95.000
66.52000 94.000
66.54000 100.000
66.56000 97.000
66.58000 95.000
66.60000 113.000
66.62000 98.000
66.64000 117.000
66.66000 102.000
66.68000 91.000
66.70000 79.000
66.72000 86.000
66.74000 88.000
66.76000 108.000
66.78000 114.000
66.80000 78.000
66.82000 119.000
66.84000 93.000
66.86000 108.000
66.88000 117.000
66.90000 98.000
66.92000 94.000
66.94000 116.000
66.96000 94.000
66.98000 82.000
67.00000 102.000
67.02000 71.000
67.04000 95.000
67.06000 104.000
67.08000 93.000
67.10000 109.000
67.12000 93.000
67.14000 108.000
67.16000 94.000
67.18000 96.000
67.20000 95.000
67.22000 104.000
67.24000 116.000
67.26000 121.000
67.28000 104.000
67.30000 93.000
67.32000 128.000
67.34000 98.000
67.36000 104.000
67.38000 119.000
67.40000 105.000
67.42000 110.000
67.44000 111.000
67.46000 112.000
67.48000 116.000
67.50000 126.000
67.52000 128.000
67.54000 133.000
67.56000 161.000
67.58000 133.000
67.60000 148.000
67.62000 144.000
67.64000 169.000
67.66000 155.000
67.68000 135.000
67.70000 173.000
67.72000 177.000
67.74000 166.000
67.76000 169.000
67.78000 157.000
67.80000 160.000
67.82000 171.000
67.84000 164.000
67.86000 163.000
67.88000 148.000
67.90000 147.000
67.92000 157.000
67.94000 158.000
67.96000 135.000
67.98000 162.000
68.00000 147.000
68.02000 119.000
68.04000 132.000
68.06000 138.000
68.08000 98.000
68.10000 132.000
68.12000 112.000
68.14000 105.000
68.16000 104.000
68.18000 135.000
68.20000 109.000
68.22000 99.000
68.24000 96.000
68.26000 98.000
68.28000 91.000
68.30000 110.000
68.32000 96.000
68.34000 100.000
68.36000 95.000
68.38000 123.000
68.40000 103.000
68.42000 80.000
68.44000 99.000
68.46000 120.000
68.48000 74.000
68.50000 116.000
68.52000 104.000
68.54000 106.000
68.56000 105.000
68.58000 111.000
68.60000 101.000
68.62000 110.000
68.64000 111.000
68.66000 105.000
68.68000 96.000
68.70000 78.000
68.72000 99.000
68.74000 84.000
68.76000 77.000
68.78000 95.000
68.80000 90.000
68.82000 83.000
68.84000 85.000
68.86000 89.000
68.88000 93.000
68.90000 83.000
68.92000 72.000
68.94000 96.000
68.96000 85.000
68.98000 85.000
69.00000 105.000
69.02000 106.000
69.04000 82.000
69.06000 95.000
69.08000 95.000
69.10000 87.000
69.12000 84.000
69.14000 92.000
69.16000 99.000
69.18000 100.000
69.20000 105.000
69.22000 107.000
69.24000 100.000
69.26000 96.000
69.28000 91.000
69.30000 107.000
69.32000 85.000
69.34000 101.000
69.36000 90.000
69.38000 100.000
69.40000 103.000
69.42000 90.000
69.44000 94.000
69.46000 100.000
69.48000 104.000
69.50000 82.000
69.52000 90.000
69.54000 100.000
69.56000 87.000
69.58000 99.000
69.60000 84.000
69.62000 72.000
69.64000 89.000
69.66000 81.000
69.68000 90.000
69.70000 88.000
69.72000 94.000
69.74000 89.000
69.76000 87.000
69.78000 86.000
69.80000 85.000
69.82000 90.000
69.84000 83.000
69.86000 77.000
69.88000 81.000
69.90000 90.000
69.92000 107.000
69.94000 85.000
69.96000 89.000
69.98000 78.000
70.00000 89.000
70.02000 91.000
70.04000 87.000
70.06000 101.000
70.08000 99.000
70.10000 111.000
70.12000 99.000
70.14000 93.000
70.16000 104.000
70.18000 86.000
70.20000 121.000
70.22000 109.000
70.24000 97.000
70.26000 128.000
70.28000 103.000
70.30000 123.000
70.32000 132.000
70.34000 119.000
70.36000 125.000
70.38000 119.000
70.40000 140.000
70.42000 143.000
70.44000 141.000
70.46000 144.000
70.48000 162.000
70.50000 173.000
70.52000 178.000
70.54000 173.000
70.56000 180.000
70.58000 170.000
70.60000 169.000
70.62000 191.000
70.64000 174.000
70.66000 206.000
70.68000 224.000
70.70000 229.000
70.72000 234.000
70.74000 268.000
70.76000 322.000
70.78000 320.000
70.80000 380.000
70.82000 473.000
70.84000 550.000
70.86000 487.000
70.88000 536.000
70.90000 507.000
70.92000 462.000
70.94000 445.000
70.96000 440.000
70.98000 382.000
71.00000 423.000
71.02000 353.000
71.04000 365.000
71.06000 359.000
71.08000 333.000
71.10000 306.000
71.12000 252.000
71.14000 200.000
71.16000 205.000
71.18000 201.000
71.20000 162.000
71.22000 162.000
71.24000 171.000
71.26000 156.000
71.28000 143.000
71.30000 135.000
71.32000 162.000
71.34000 147.000
71.36000 139.000
71.38000 123.000
71.40000 128.000
71.42000 123.000
71.44000 119.000
71.46000 119.000
71.48000 112.000
71.50000 120.000
71.52000 147.000
71.54000 126.000
71.56000 117.000
71.58000 105.000
71.60000 140.000
71.62000 128.000
71.64000 119.000
71.66000 135.000
71.68000 115.000
71.70000 123.000
71.72000 105.000
71.74000 109.000
71.76000 115.000
71.78000 110.000
71.80000 133.000
71.82000 94.000
71.84000 111.000
71.86000 106.000
71.88000 123.000
71.90000 117.000
71.92000 133.000
71.94000 121.000
71.96000 125.000
71.98000 120.000
72.00000 130.000
72.02000 105.000
72.04000 112.000
72.06000 120.000
72.08000 87.000
72.10000 114.000
72.12000 106.000
72.14000 108.000
72.16000 109.000
72.18000 105.000
72.20000 110.000
72.22000 104.000
72.24000 104.000
72.26000 99.000
72.28000 105.000
72.30000 110.000
72.32000 108.000
72.34000 93.000
72.36000 91.000
72.38000 99.000
72.40000 100.000
72.42000 93.000
72.44000 93.000
72.46000 127.000
72.48000 96.000
72.50000 116.000
72.52000 103.000
72.54000 100.000
72.56000 91.000
72.58000 104.000
72.60000 99.000
72.62000 110.000
72.64000 99.000
72.66000 89.000
72.68000 103.000
72.70000 105.000
72.72000 113.000
72.74000 108.000
72.76000 98.000
72.78000 110.000
72.80000 132.000
72.82000 131.000
72.84000 144.000
72.86000 114.000
72.88000 150.000
72.90000 136.000
72.92000 144.000
72.94000 136.000
72.96000 155.000
72.98000 134.000
73.00000 178.000
73.02000 150.000
73.04000 163.000
73.06000 182.000
73.08000 149.000
73.10000 156.000
73.12000 177.000
73.14000 175.000
73.16000 171.000
73.18000 176.000
73.20000 164.000
73.22000 161.000
73.24000 177.000
73.26000 162.000
73.28000 157.000
73.30000 156.000
73.32000 167.000
73.34000 141.000
73.36000 151.000
73.38000 155.000
73.40000 139.000
73.42000 120.000
73.44000 126.000
73.46000 128.000
73.48000 97.000
73.50000 115.000
73.52000 98.000
73.54000 124.000
73.56000 131.000
73.58000 116.000
73.60000 127.000
73.62000 104.000
73.64000 116.000
73.66000 108.000
73.68000 91.000
73.70000 115.000
73.72000 101.000
73.74000 93.000
73.76000 117.000
73.78000 109.000
73.80000 92.000
73.82000 89.000
73.84000 96.000
73.86000 112.000
73.88000 66.000
73.90000 93.000
73.92000 95.000
73.94000 95.000
73.96000 85.000
73.98000 108.000
74.00000 96.000
74.02000 84.000
74.04000 102.000
74.06000 101.000
74.08000 105.000
74.10000 91.000
74.12000 92.000
74.14000 100.000
74.16000 108.000
74.18000 80.000
74.20000 94.000
74.22000 97.000
74.24000 73.000
74.26000 111.000
74.28000 82.000
74.30000 73.000
74.32000 81.000
74.34000 84.000
74.36000 88.000
74.38000 91.000
74.40000 99.000
74.42000 78.000
74.44000 92.000
74.46000 95.000
74.48000 85.000
74.50000 102.000
74.52000 94.000
74.54000 90.000
74.56000 81.000
74.58000 92.000
74.60000 83.000
74.62000 87.000
74.64000 103.000
74.66000 88.000
74.68000 79.000
74.70000 94.000
74.72000 96.000
74.74000 86.000
74.76000 91.000
74.78000 95.000
74.80000 88.000
74.82000 106.000
74.84000 95.000
74.86000 94.000
74.88000 90.000
74.90000 90.000
74.92000 82.000
74.94000 94.000
74.96000 95.000
74.98000 91.000
75.00000 104.000
