2.00000 2381.000
2.02000 2297.000
2.04000 2211.000
2.06000 2077.000
2.08000 2000.000
2.10000 1868.000
2.12000 1872.000
2.14000 1713.000
2.16000 1614.000
2.18000 1722.000
2.20000 1576.000
2.22000 1541.000
2.24000 1510.000
2.26000 1497.000
2.28000 1470.000
2.30000 1525.000
2.32000 1490.000
2.34000 1443.000
2.36000 1416.000
2.38000 1442.000
2.40000 1310.000
2.42000 1365.000
2.44000 1303.000
2.46000 1298.000
2.48000 1354.000
2.50000 1271.000
2.52000 1284.000
2.54000 1279.000
2.56000 1264.000
2.58000 1221.000
2.60000 1236.000
2.62000 1201.000
2.64000 1171.000
2.66000 1151.000
2.68000 1224.000
2.70000 1158.000
2.72000 1110.000
2.74000 1131.000
2.76000 1132.000
2.78000 1093.000
2.80000 1139.000
2.82000 1187.000
2.84000 1055.000
2.86000 1134.000
2.88000 1072.000
2.90000 1049.000
2.92000 1013.000
2.94000 968.000
2.96000 1038.000
2.98000 979.000
3.00000 1016.000
3.02000 968.000
3.04000 965.000
3.06000 990.000
3.08000 909.000
3.10000 952.000
3.12000 971.000
3.14000 984.000
3.16000 920.000
3.18000 954.000
3.20000 887.000
3.22000 863.000
3.24000 893.000
3.26000 942.000
3.28000 938.000
3.30000 876.000
3.32000 874.000
3.34000 871.000
3.36000 907.000
3.38000 839.000
3.40000 864.000
3.42000 873.000
3.44000 858.000
3.46000 817.000
3.48000 777.000
3.50000 835.000
3.52000 851.000
3.54000 808.000
3.56000 798.000
3.58000 828.000
3.60000 807.000
3.62000 770.000
3.64000 774.000
3.66000 827.000
3.68000 750.000
3.70000 774.000
3.72000 758.000
3.74000 786.000
3.76000 729.000
3.78000 707.000
3.80000 781.000
3.82000 735.000
3.84000 736.000
3.86000 746.000
3.88000 735.000
3.90000 689.000
3.92000 682.000
3.94000 662.000
3.96000 705.000
3.98000 676.000
4.00000 714.000
4.02000 686.000
4.04000 660.000
4.06000 622.000
4.08000 664.000
4.10000 702.000
4.12000 625.000
4.14000 673.000
4.16000 667.000
4.18000 649.000
4.20000 646.000
4.22000 679.000
4.24000 663.000
4.26000 646.000
4.28000 638.000
4.30000 649.000
4.32000 589.000
4.34000 582.000
4.36000 624.000
4.38000 599.000
4.40000 613.000
4.42000 565.000
4.44000 565.000
4.46000 608.000
4.48000 599.000
4.50000 604.000
4.52000 596.000
4.54000 585.000
4.56000 597.000
4.58000 610.000
4.60000 549.000
4.62000 566.000
4.64000 535.000
4.66000 545.000
4.68000 598.000
4.70000 533.000
4.72000 523.000
4.74000 565.000
4.76000 507.000
4.78000 529.000
4.80000 498.000
4.82000 551.000
4.84000 544.000
4.86000 540.000
4.88000 536.000
4.90000 512.000
4.92000 534.000
4.94000 564.000
4.96000 510.000
4.98000 484.000
5.00000 539.000
5.02000 484.000
5.04000 498.000
5.06000 503.000
5.08000 497.000
5.10000 548.000
5.12000 455.000
5.14000 581.000
5.16000 485.000
5.18000 493.000
5.20000 476.000
5.22000 501.000
5.24000 472.000
5.26000 453.000
5.28000 509.000
5.30000 452.000
5.32000 493.000
5.34000 464.000
5.36000 473.000
5.38000 467.000
5.40000 471.000
5.42000 462.000
5.44000 474.000
5.46000 427.000
5.48000 413.000
5.50000 425.000
5.52000 442.000
5.54000 443.000
5.56000 491.000
5.58000 462.000
5.60000 433.000
5.62000 436.000
5.64000 427.000
5.66000 429.000
5.68000 430.000
5.70000 440.000
5.72000 406.000
5.74000 459.000
5.76000 429.000
5.78000 473.000
5.80000 417.000
5.82000 465.000
5.84000 438.000
5.86000 398.000
5.88000 412.000
5.90000 446.000
5.92000 443.000
5.94000 381.000
5.96000 457.000
5.98000 428.000
6.00000 418.000
6.02000 432.000
6.04000 442.000
6.06000 361.000
6.08000 422.000
6.10000 394.000
6.12000 399.000
6.14000 429.000
6.16000 391.000
6.18000 419.000
6.20000 404.000
6.22000 384.000
6.24000 384.000
6.26000 386.000
6.28000 404.000
6.30000 406.000
6.32000 385.000
6.34000 427.000
6.36000 412.000
6.38000 368.000
6.40000 392.000
6.42000 388.000
6.44000 355.000
6.46000 395.000
6.48000 389.000
6.50000 414.000
6.52000 401.000
6.54000 409.000
6.56000 362.000
6.58000 414.000
6.60000 382.000
6.62000 401.000
6.64000 372.000
6.66000 389.000
6.68000 390.000
6.70000 392.000
6.72000 383.000
6.74000 390.000
6.76000 449.000
6.78000 415.000
6.80000 400.000
6.82000 390.000
6.84000 405.000
6.86000 395.000
6.88000 431.000
6.90000 427.000
6.92000 444.000
6.94000 420.000
6.96000 411.000
6.98000 491.000
7.00000 430.000
7.02000 500.000
7.04000 474.000
7.06000 506.000
7.08000 511.000
7.10000 500.000
7.12000 559.000
7.14000 554.000
7.16000 535.000
7.18000 588.000
7.20000 608.000
7.22000 654.000
7.24000 590.000
7.26000 620.000
7.28000 610.000
7.30000 595.000
7.32000 556.000
7.34000 609.000
7.36000 519.000
7.38000 545.000
7.40000 505.000
7.42000 518.000
7.44000 482.000
7.46000 538.000
7.48000 507.000
7.50000 498.000
7.52000 505.000
7.54000 482.000
7.56000 464.000
7.58000 481.000
7.60000 431.000
7.62000 432.000
7.64000 437.000
7.66000 434.000
7.68000 363.000
7.70000 384.000
7.72000 434.000
7.74000 398.000
7.76000 392.000
7.78000 375.000
7.80000 379.000
7.82000 415.000
7.84000 384.000
7.86000 371.000
7.88000 369.000
7.90000 353.000
7.92000 362.000
7.94000 353.000
7.96000 310.000
7.98000 389.000
8.00000 311.000
8.02000 328.000
8.04000 371.000
8.06000 344.000
8.08000 347.000
8.10000 337.000
8.12000 302.000
8.14000 295.000
8.16000 328.000
8.18000 332.000
8.20000 314.000
8.22000 300.000
8.24000 311.000
8.26000 301.000
8.28000 316.000
8.30000 316.000
8.32000 315.000
8.34000 340.000
8.36000 296.000
8.38000 280.000
8.40000 295.000
8.42000 335.000
8.44000 317.000
8.46000 281.000
8.48000 295.000
8.50000 306.000
8.52000 326.000
8.54000 280.000
8.56000 269.000
8.58000 314.000
8.60000 287.000
8.62000 309.000
8.64000 291.000
8.66000 299.000
8.68000 301.000
8.70000 295.000
8.72000 291.000
8.74000 254.000
8.76000 266.000
8.78000 290.000
8.80000 277.000
8.82000 280.000
8.84000 264.000
8.86000 255.000
8.88000 271.000
8.90000 250.000
8.92000 270.000
8.94000 266.000
8.96000 294.000
8.98000 276.000
9.00000 288.000
9.02000 250.000
9.04000 277.000
9.06000 276.000
9.08000 264.000
9.10000 270.000
9.12000 262.000
9.14000 217.000
9.16000 272.000
9.18000 259.000
9.20000 266.000
9.22000 236.000
9.24000 227.000
9.26000 275.000
9.28000 243.000
9.30000 272.000
9.32000 294.000
9.34000 241.000
9.36000 236.000
9.38000 243.000
9.40000 271.000
9.42000 231.000
9.44000 244.000
9.46000 263.000
9.48000 268.000
9.50000 238.000
9.52000 254.000
9.54000 250.000
9.56000 242.000
9.58000 229.000
9.60000 246.000
9.62000 279.000
9.64000 242.000
9.66000 251.000
9.68000 221.000
9.70000 253.000
9.72000 238.000
9.74000 225.000
9.76000 258.000
9.78000 247.000
9.80000 272.000
9.82000 251.000
9.84000 256.000
9.86000 257.000
9.88000 239.000
9.90000 258.000
9.92000 247.000
9.94000 228.000
9.96000 258.000
9.98000 266.000
10.00000 264.000
10.02000 228.000
10.04000 251.000
10.06000 259.000
10.08000 268.000
10.10000 250.000
10.12000 273.000
10.14000 283.000
10.16000 254.000
10.18000 308.000
10.20000 305.000
10.22000 252.000
10.24000 266.000
10.26000 313.000
10.28000 315.000
10.30000 310.000
10.32000 265.000
10.34000 247.000
10.36000 228.000
10.38000 246.000
10.40000 240.000
10.42000 241.000
10.44000 233.000
10.46000 255.000
10.48000 245.000
10.50000 213.000
10.52000 224.000
10.54000 223.000
10.56000 244.000
10.58000 254.000
10.60000 222.000
10.62000 226.000
10.64000 218.000
10.66000 233.000
10.68000 221.000
10.70000 243.000
10.72000 222.000
10.74000 200.000
10.76000 226.000
10.78000 226.000
10.80000 211.000
10.82000 255.000
10.84000 240.000
10.86000 218.000
10.88000 230.000
10.90000 205.000
10.92000 226.000
10.94000 222.000
10.96000 228.000
10.98000 222.000
11.00000 235.000
11.02000 219.000
11.04000 212.000
11.06000 213.000
11.08000 246.000
11.10000 236.000
11.12000 250.000
11.14000 189.000
11.16000 219.000
11.18000 262.000
11.20000 211.000
11.22000 237.000
11.24000 251.000
11.26000 243.000
11.28000 220.000
11.30000 259.000
11.32000 254.000
11.34000 233.000
11.36000 270.000
11.38000 259.000
11.40000 253.000
11.42000 213.000
11.44000 213.000
11.46000 233.000
11.48000 201.000
11.50000 197.000
11.52000 204.000
11.54000 236.000
11.56000 212.000
11.58000 198.000
11.60000 250.000
11.62000 223.000
11.64000 220.000
11.66000 206.000
11.68000 212.000
11.70000 210.000
11.72000 209.000
11.74000 219.000
11.76000 191.000
11.78000 204.000
11.80000 235.000
11.82000 213.000
11.84000 201.000
11.86000 184.000
11.88000 217.000
11.90000 202.000
11.92000 227.000
11.94000 235.000
11.96000 251.000
11.98000 242.000
12.00000 246.000
12.02000 235.000
12.04000 250.000
12.06000 262.000
12.08000 263.000
12.10000 300.000
12.12000 300.000
12.14000 306.000
12.16000 319.000
12.18000 340.000
12.20000 289.000
12.22000 332.000
12.24000 271.000
12.26000 264.000
12.28000 255.000
12.30000 245.000
12.32000 217.000
12.34000 238.000
12.36000 202.000
12.38000 205.000
12.40000 180.000
12.42000 194.000
12.44000 183.000
12.46000 196.000
12.48000 200.000
12.50000 203.000
12.52000 208.000
12.54000 197.000
12.56000 209.000
12.58000 195.000
12.60000 214.000
12.62000 200.000
12.64000 187.000
12.66000 209.000
12.68000 210.000
12.70000 189.000
12.72000 198.000
12.74000 234.000
12.76000 176.000
12.78000 227.000
12.80000 225.000
12.82000 200.000
12.84000 222.000
12.86000 198.000
12.88000 160.000
12.90000 196.000
12.92000 187.000
12.94000 194.000
12.96000 192.000
12.98000 194.000
13.00000 193.000
13.02000 205.000
13.04000 214.000
13.06000 193.000
13.08000 194.000
13.10000 188.000
13.12000 200.000
13.14000 192.000
13.16000 206.000
13.18000 213.000
13.20000 194.000
13.22000 194.000
13.24000 184.000
13.26000 196.000
13.28000 184.000
13.30000 190.000
13.32000 175.000
13.34000 183.000
13.36000 178.000
13.38000 162.000
13.40000 203.000
13.42000 197.000
13.44000 188.000
13.46000 185.000
13.48000 204.000
13.50000 217.000
13.52000 167.000
13.54000 183.000
13.56000 194.000
13.58000 192.000
13.60000 194.000
13.62000 192.000
13.64000 174.000
13.66000 197.000
13.68000 193.000
13.70000 182.000
13.72000 176.000
13.74000 210.000
13.76000 195.000
13.78000 184.000
13.80000 181.000
13.82000 169.000
13.84000 188.000
13.86000 177.000
13.88000 184.000
13.90000 203.000
13.92000 167.000
13.94000 184.000
13.96000 201.000
13.98000 202.000
14.00000 207.000
14.02000 210.000
14.04000 176.000
14.06000 182.000
14.08000 200.000
14.10000 208.000
14.12000 208.000
14.14000 212.000
14.16000 199.000
14.18000 219.000
14.20000 223.000
14.22000 210.000
14.24000 230.000
14.26000 229.000
14.28000 252.000
14.30000 308.000
14.32000 264.000
14.34000 339.000
14.36000 341.000
14.38000 359.000
14.40000 380.000
14.42000 500.000
14.44000 532.000
14.46000 537.000
14.48000 594.000
14.50000 521.000
14.52000 522.000
14.54000 475.000
14.56000 378.000
14.58000 358.000
14.60000 281.000
14.62000 244.000
14.64000 233.000
14.66000 234.000
14.68000 236.000
14.70000 221.000
14.72000 194.000
14.74000 221.000
14.76000 223.000
14.78000 159.000
14.80000 205.000
14.82000 173.000
14.84000 190.000
14.86000 186.000
14.88000 172.000
14.90000 172.000
14.92000 204.000
14.94000 194.000
14.96000 174.000
14.98000 193.000
15.00000 179.000
15.02000 196.000
15.04000 191.000
15.06000 181.000
15.08000 153.000
15.10000 170.000
15.12000 170.000
15.14000 186.000
15.16000 153.000
15.18000 187.000
15.20000 196.000
15.22000 177.000
15.24000 182.000
15.26000 176.000
15.28000 175.000
15.30000 170.000
15.32000 180.000
15.34000 189.000
15.36000 183.000
15.38000 188.000
15.40000 174.000
15.42000 172.000
15.44000 173.000
15.46000 192.000
15.48000 182.000
15.50000 200.000
15.52000 197.000
15.54000 186.000
15.56000 172.000
15.58000 168.000
15.60000 179.000
15.62000 173.000
15.64000 170.000
15.66000 165.000
15.68000 188.000
15.70000 185.000
15.72000 194.000
15.74000 175.000
15.76000 184.000
15.78000 184.000
15.80000 179.000
15.82000 179.000
15.84000 178.000
15.86000 194.000
15.88000 177.000
15.90000 191.000
15.92000 211.000
15.94000 208.000
15.96000 220.000
15.98000 198.000
16.00000 238.000
16.02000 222.000
16.04000 244.000
16.06000 242.000
16.08000 246.000
16.10000 232.000
16.12000 249.000
16.14000 232.000
16.16000 213.000
16.18000 243.000
16.20000 212.000
16.22000 214.000
16.24000 216.000
16.26000 182.000
16.28000 205.000
16.30000 187.000
16.32000 210.000
16.34000 178.000
16.36000 174.000
16.38000 183.000
16.40000 165.000
16.42000 200.000
16.44000 188.000
16.46000 149.000
16.48000 160.000
16.50000 185.000
16.52000 170.000
16.54000 168.000
16.56000 170.000
16.58000 186.000
16.60000 184.000
16.62000 167.000
16.64000 179.000
16.66000 172.000
16.68000 166.000
16.70000 177.000
16.72000 187.000
16.74000 152.000
16.76000 147.000
16.78000 202.000
16.80000 165.000
16.82000 167.000
16.84000 144.000
16.86000 167.000
16.88000 154.000
16.90000 154.000
16.92000 180.000
16.94000 177.000
16.96000 180.000
16.98000 150.000
17.00000 164.000
17.02000 180.000
17.04000 154.000
17.06000 162.000
17.08000 178.000
17.10000 197.000
17.12000 177.000
17.14000 209.000
17.16000 173.000
17.18000 142.000
17.20000 155.000
17.22000 176.000
17.24000 165.000
17.26000 166.000
17.28000 203.000
17.30000 169.000
17.32000 181.000
17.34000 190.000
17.36000 206.000
17.38000 178.000
17.40000 196.000
17.42000 184.000
17.44000 181.000
17.46000 196.000
17.48000 204.000
17.50000 187.000
17.52000 167.000
17.54000 160.000
17.56000 178.000
17.58000 175.000
17.60000 177.000
17.62000 174.000
17.64000 174.000
17.66000 188.000
17.68000 187.000
17.70000 153.000
17.72000 148.000
17.74000 173.000
17.76000 149.000
17.78000 145.000
17.80000 168.000
17.82000 190.000
17.84000 152.000
17.86000 158.000
17.88000 178.000
17.90000 163.000
17.92000 173.000
17.94000 176.000
17.96000 167.000
17.98000 165.000
18.00000 144.000
18.02000 170.000
18.04000 168.000
18.06000 188.000
18.08000 149.000
18.10000 168.000
18.12000 189.000
18.14000 163.000
18.16000 174.000
18.18000 154.000
18.20000 178.000
18.22000 183.000
18.24000 174.000
18.26000 198.000
18.28000 192.000
18.30000 183.000
18.32000 183.000
18.34000 161.000
18.36000 188.000
18.38000 195.000
18.40000 169.000
18.42000 188.000
18.44000 203.000
18.46000 170.000
18.48000 172.000
18.50000 144.000
18.52000 184.000
18.54000 166.000
18.56000 168.000
18.58000 168.000
18.60000 152.000
18.62000 171.000
18.64000 161.000
18.66000 162.000
18.68000 160.000
18.70000 172.000
18.72000 148.000
18.74000 162.000
18.76000 172.000
18.78000 166.000
18.80000 163.000
18.82000 177.000
18.84000 173.000
18.86000 180.000
18.88000 146.000
18.90000 153.000
18.92000 184.000
18.94000 154.000
18.96000 186.000
18.98000 156.000
19.00000 164.000
19.02000 172.000
19.04000 185.000
19.06000 170.000
19.08000 183.000
19.10000 195.000
19.12000 181.000
19.14000 164.000
19.16000 166.000
19.18000 182.000
19.20000 169.000
19.22000 157.000
19.24000 167.000
19.26000 168.000
19.28000 176.000
19.30000 147.000
19.32000 174.000
19.34000 147.000
19.36000 162.000
19.38000 190.000
19.40000 152.000
19.42000 166.000
19.44000 151.000
19.46000 162.000
19.48000 166.000
19.50000 171.000
19.52000 178.000
19.54000 198.000
19.56000 193.000
19.58000 177.000
19.60000 158.000
19.62000 176.000
19.64000 175.000
19.66000 155.000
19.68000 164.000
19.70000 161.000
19.72000 182.000
19.74000 172.000
19.76000 157.000
19.78000 193.000
19.80000 188.000
19.82000 175.000
19.84000 187.000
19.86000 181.000
19.88000 185.000
19.90000 167.000
19.92000 186.000
19.94000 195.000
19.96000 167.000
19.98000 185.000
20.00000 178.000
20.02000 192.000
20.04000 191.000
20.06000 177.000
20.08000 165.000
20.10000 169.000
20.12000 187.000
20.14000 188.000
20.16000 185.000
20.18000 198.000
20.20000 181.000
20.22000 183.000
20.24000 178.000
20.26000 189.000
20.28000 192.000
20.30000 183.000
20.32000 177.000
20.34000 194.000
20.36000 166.000
20.38000 170.000
20.40000 198.000
20.42000 185.000
20.44000 214.000
20.46000 223.000
20.48000 211.000
20.50000 209.000
20.52000 207.000
20.54000 200.000
20.56000 208.000
20.58000 239.000
20.60000 231.000
20.62000 237.000
20.64000 208.000
20.66000 251.000
20.68000 223.000
20.70000 224.000
20.72000 221.000
20.74000 203.000
20.76000 208.000
20.78000 206.000
20.80000 200.000
20.82000 208.000
20.84000 216.000
20.86000 187.000
20.88000 204.000
20.90000 197.000
20.92000 222.000
20.94000 237.000
20.96000 215.000
20.98000 243.000
21.00000 248.000
21.02000 219.000
21.04000 209.000
21.06000 220.000
21.08000 212.000
21.10000 213.000
21.12000 192.000
21.14000 172.000
21.16000 177.000
21.18000 174.000
21.20000 189.000
21.22000 178.000
21.24000 180.000
21.26000 195.000
21.28000 187.000
21.30000 182.000
21.32000 219.000
21.34000 187.000
21.36000 185.000
21.38000 189.000
21.40000 201.000
21.42000 183.000
21.44000 194.000
21.46000 186.000
21.48000 187.000
21.50000 185.000
21.52000 176.000
21.54000 181.000
21.56000 186.000
21.58000 204.000
21.60000 194.000
21.62000 214.000
21.64000 228.000
21.66000 240.000
21.68000 264.000
21.70000 246.000
21.72000 284.000
21.74000 305.000
21.76000 319.000
21.78000 360.000
21.80000 367.000
21.82000 361.000
21.84000 372.000
21.86000 354.000
21.88000 310.000
21.90000 320.000
21.92000 290.000
21.94000 248.000
21.96000 242.000
21.98000 223.000
22.00000 230.000
22.02000 192.000
22.04000 210.000
22.06000 216.000
22.08000 222.000
22.10000 227.000
22.12000 218.000
22.14000 239.000
22.16000 241.000
22.18000 261.000
22.20000 263.000
22.22000 278.000
22.24000 291.000
22.26000 290.000
22.28000 366.000
22.30000 343.000
22.32000 330.000
22.34000 323.000
22.36000 353.000
22.38000 352.000
22.40000 347.000
22.42000 345.000
22.44000 362.000
22.46000 321.000
22.48000 354.000
22.50000 331.000
22.52000 309.000
22.54000 289.000
22.56000 290.000
22.58000 309.000
22.60000 259.000
22.62000 252.000
22.64000 298.000
22.66000 255.000
22.68000 311.000
22.70000 288.000
22.72000 279.000
22.74000 303.000
22.76000 323.000
22.78000 299.000
22.80000 326.000
22.82000 300.000
22.84000 329.000
22.86000 334.000
22.88000 370.000
22.90000 345.000
22.92000 368.000
22.94000 393.000
22.96000 387.000
22.98000 393.000
23.00000 429.000
23.02000 461.000
23.04000 435.000
23.06000 410.000
23.08000 414.000
23.10000 394.000
23.12000 392.000
23.14000 384.000
23.16000 361.000
23.18000 312.000
23.20000 329.000
23.22000 296.000
23.24000 278.000
23.26000 278.000
23.28000 278.000
23.30000 245.000
23.32000 255.000
23.34000 273.000
23.36000 250.000
23.38000 261.000
23.40000 265.000
23.42000 274.000
23.44000 259.000
23.46000 261.000
23.48000 254.000
23.50000 251.000
23.52000 241.000
23.54000 240.000
23.56000 234.000
23.58000 254.000
23.60000 267.000
23.62000 238.000
23.64000 218.000
23.66000 243.000
23.68000 217.000
23.70000 234.000
23.72000 236.000
23.74000 234.000
23.76000 269.000
23.78000 207.000
23.80000 231.000
23.82000 271.000
23.84000 260.000
23.86000 229.000
23.88000 237.000
23.90000 270.000
23.92000 265.000
23.94000 281.000
23.96000 271.000
23.98000 290.000
24.00000 309.000
24.02000 338.000
24.04000 327.000
24.06000 361.000
24.08000 412.000
24.10000 478.000
24.12000 571.000
24.14000 721.000
24.16000 851.000
24.18000 979.000
24.20000 1094.000
24.22000 1208.000
24.24000 1254.000
24.26000 1190.000
24.28000 1055.000
24.30000 850.000
24.32000 704.000
24.34000 507.000
24.36000 452.000
24.38000 353.000
24.40000 321.000
24.42000 294.000
24.44000 302.000
24.46000 257.000
24.48000 267.000
24.50000 276.000
24.52000 252.000
24.54000 263.000
24.56000 249.000
24.58000 241.000
24.60000 260.000
24.62000 268.000
24.64000 250.000
24.66000 255.000
24.68000 244.000
24.70000 255.000
24.72000 252.000
24.74000 247.000
24.76000 231.000
24.78000 242.000
24.80000 256.000
24.82000 233.000
24.84000 247.000
24.86000 262.000
24.88000 261.000
24.90000 250.000
24.92000 247.000
24.94000 252.000
24.96000 220.000
24.98000 247.000
25.00000 258.000
25.02000 253.000
25.04000 264.000
25.06000 253.000
25.08000 267.000
25.10000 263.000
25.12000 243.000
25.14000 242.000
25.16000 252.000
25.18000 254.000
25.20000 221.000
25.22000 269.000
25.24000 235.000
25.26000 258.000
25.28000 242.000
25.30000 219.000
25.32000 240.000
25.34000 228.000
25.36000 266.000
25.38000 244.000
25.40000 256.000
25.42000 296.000
25.44000 331.000
25.46000 386.000
25.48000 412.000
25.50000 404.000
25.52000 520.000
25.54000 572.000
25.56000 653.000
25.58000 737.000
25.60000 703.000
25.62000 720.000
25.64000 659.000
25.66000 572.000
25.68000 486.000
25.70000 404.000
25.72000 381.000
25.74000 295.000
25.76000 281.000
25.78000 296.000
25.80000 267.000
25.82000 228.000
25.84000 246.000
25.86000 225.000
25.88000 227.000
25.90000 263.000
25.92000 229.000
25.94000 254.000
25.96000 227.000
25.98000 204.000
26.00000 216.000
26.02000 215.000
26.04000 211.000
26.06000 222.000
26.08000 230.000
26.10000 209.000
26.12000 208.000
26.14000 218.000
26.16000 232.000
26.18000 228.000
26.20000 222.000
26.22000 215.000
26.24000 197.000
26.26000 240.000
26.28000 208.000
26.30000 212.000
26.32000 200.000
26.34000 204.000
26.36000 200.000
26.38000 207.000
26.40000 204.000
26.42000 205.000
26.44000 221.000
26.46000 238.000
26.48000 271.000
26.50000 261.000
26.52000 268.000
26.54000 281.000
26.56000 308.000
26.58000 305.000
26.60000 321.000
26.62000 316.000
26.64000 317.000
26.66000 316.000
26.68000 322.000
26.70000 302.000
26.72000 307.000
26.74000 311.000
26.76000 299.000
26.78000 292.000
26.80000 272.000
26.82000 273.000
26.84000 228.000
26.86000 217.000
26.88000 235.000
26.90000 212.000
26.92000 199.000
26.94000 184.000
26.96000 173.000
26.98000 204.000
27.00000 176.000
27.02000 198.000
27.04000 210.000
27.06000 210.000
27.08000 179.000
27.10000 192.000
27.12000 188.000
27.14000 201.000
27.16000 216.000
27.18000 222.000
27.20000 185.000
27.22000 214.000
27.24000 225.000
27.26000 235.000
27.28000 305.000
27.30000 245.000
27.32000 313.000
27.34000 329.000
27.36000 378.000
27.38000 367.000
27.40000 378.000
27.42000 423.000
27.44000 376.000
27.46000 350.000
27.48000 337.000
27.50000 299.000
27.52000 311.000
27.54000 298.000
27.56000 257.000
27.58000 268.000
27.60000 262.000
27.62000 282.000
27.64000 263.000
27.66000 253.000
27.68000 278.000
27.70000 257.000
27.72000 276.000
27.74000 251.000
27.76000 284.000
27.78000 254.000
27.80000 233.000
27.82000 258.000
27.84000 274.000
27.86000 254.000
27.88000 284.000
27.90000 280.000
27.92000 268.000
27.94000 297.000
27.96000 287.000
27.98000 312.000
28.00000 266.000
28.02000 305.000
28.04000 291.000
28.06000 333.000
28.08000 308.000
28.10000 363.000
28.12000 382.000
28.14000 377.000
28.16000 379.000
28.18000 393.000
28.20000 437.000
28.22000 440.000
28.24000 431.000
28.26000 412.000
28.28000 422.000
28.30000 366.000
28.32000 308.000
28.34000 330.000
28.36000 276.000
28.38000 234.000
28.40000 204.000
28.42000 211.000
28.44000 213.000
28.46000 195.000
28.48000 196.000
28.50000 212.000
28.52000 190.000
28.54000 182.000
28.56000 207.000
28.58000 182.000
28.60000 187.000
28.62000 186.000
28.64000 169.000
28.66000 192.000
28.68000 179.000
28.70000 184.000
28.72000 204.000
28.74000 184.000
28.76000 162.000
28.78000 181.000
28.80000 214.000
28.82000 184.000
28.84000 178.000
28.86000 192.000
28.88000 185.000
28.90000 173.000
28.92000 207.000
28.94000 219.000
28.96000 223.000
28.98000 212.000
29.00000 204.000
29.02000 214.000
29.04000 219.000
29.06000 246.000
29.08000 252.000
29.10000 278.000
29.12000 287.000
29.14000 304.000
29.16000 352.000
29.18000 376.000
29.20000 446.000
29.22000 452.000
29.24000 483.000
29.26000 506.000
29.28000 504.000
29.30000 487.000
29.32000 424.000
29.34000 383.000
29.36000 366.000
29.38000 291.000
29.40000 330.000
29.42000 301.000
29.44000 324.000
29.46000 319.000
29.48000 331.000
29.50000 321.000
29.52000 333.000
29.54000 351.000
29.56000 336.000
29.58000 357.000
29.60000 364.000
29.62000 400.000
29.64000 371.000
29.66000 425.000
29.68000 365.000
29.70000 406.000
29.72000 379.000
29.74000 362.000
29.76000 356.000
29.78000 302.000
29.80000 348.000
29.82000 295.000
29.84000 261.000
29.86000 290.000
29.88000 238.000
29.90000 264.000
29.92000 235.000
29.94000 250.000
29.96000 215.000
29.98000 230.000
30.00000 230.000
30.02000 229.000
30.04000 219.000
30.06000 212.000
30.08000 204.000
30.10000 205.000
30.12000 200.000
30.14000 208.000
30.16000 214.000
30.18000 195.000
30.20000 195.000
30.22000 200.000
30.24000 194.000
30.26000 216.000
30.28000 196.000
30.30000 196.000
30.32000 214.000
30.34000 206.000
30.36000 209.000
30.38000 222.000
30.40000 224.000
30.42000 230.000
30.44000 268.000
30.46000 279.000
30.48000 276.000
30.50000 281.000
30.52000 303.000
30.54000 288.000
30.56000 355.000
30.58000 370.000
30.60000 377.000
30.62000 389.000
30.64000 415.000
30.66000 426.000
30.68000 433.000
30.70000 479.000
30.72000 519.000
30.74000 514.000
30.76000 592.000
30.78000 693.000
30.80000 758.000
30.82000 829.000
30.84000 1050.000
30.86000 1326.000
30.88000 1740.000
30.90000 2218.000
30.92000 2949.000
30.94000 3738.000
30.96000 4461.000
30.98000 4915.000
31.00000 5140.000
31.02000 5150.000
31.04000 4684.000
31.06000 3853.000
31.08000 3057.000
31.10000 2111.000
31.12000 1626.000
31.14000 1159.000
31.16000 868.000
31.18000 650.000
31.20000 581.000
31.22000 465.000
31.24000 445.000
31.26000 422.000
31.28000 383.000
31.30000 347.000
31.32000 333.000
31.34000 307.000
31.36000 277.000
31.38000 263.000
31.40000 244.000
31.42000 244.000
31.44000 249.000
31.46000 227.000
31.48000 244.000
31.50000 256.000
31.52000 245.000
31.54000 219.000
31.56000 255.000
31.58000 271.000
31.60000 214.000
31.62000 223.000
31.64000 246.000
31.66000 226.000
31.68000 210.000
31.70000 237.000
31.72000 225.000
31.74000 231.000
31.76000 229.000
31.78000 231.000
31.80000 262.000
31.82000 238.000
31.84000 211.000
31.86000 212.000
31.88000 238.000
31.90000 217.000
31.92000 271.000
31.94000 289.000
31.96000 264.000
31.98000 245.000
32.00000 280.000
32.02000 259.000
32.04000 304.000
32.06000 260.000
32.08000 270.000
32.10000 282.000
32.12000 290.000
32.14000 299.000
32.16000 343.000
32.18000 333.000
32.20000 397.000
32.22000 483.000
32.24000 552.000
32.26000 605.000
32.28000 637.000
32.30000 678.000
32.32000 737.000
32.34000 731.000
32.36000 799.000
32.38000 759.000
32.40000 740.000
32.42000 840.000
32.44000 886.000
32.46000 950.000
32.48000 997.000
32.50000 1103.000
32.52000 1024.000
32.54000 1022.000
32.56000 995.000
32.58000 869.000
32.60000 861.000
32.62000 689.000
32.64000 660.000
32.66000 516.000
32.68000 468.000
32.70000 409.000
32.72000 376.000
32.74000 385.000
32.76000 371.000
32.78000 358.000
32.80000 394.000
32.82000 384.000
32.84000 350.000
32.86000 329.000
32.88000 352.000
32.90000 366.000
32.92000 351.000
32.94000 350.000
32.96000 334.000
32.98000 300.000
33.00000 290.000
33.02000 256.000
33.04000 275.000
33.06000 221.000
33.08000 216.000
33.10000 223.000
33.12000 191.000
33.14000 205.000
33.16000 209.000
33.18000 207.000
33.20000 209.000
33.22000 234.000
33.24000 256.000
33.26000 226.000
33.28000 223.000
33.30000 215.000
33.32000 235.000
33.34000 250.000
33.36000 229.000
33.38000 224.000
33.40000 211.000
33.42000 202.000
33.44000 188.000
33.46000 174.000
33.48000 180.000
33.50000 144.000
33.52000 149.000
33.54000 138.000
33.56000 147.000
33.58000 142.000
33.60000 129.000
33.62000 161.000
33.64000 150.000
33.66000 130.000
33.68000 135.000
33.70000 142.000
33.72000 141.000
33.74000 126.000
33.76000 145.000
33.78000 139.000
33.80000 147.000
33.82000 136.000
33.84000 155.000
33.86000 142.000
33.88000 129.000
33.90000 156.000
33.92000 157.000
33.94000 140.000
33.96000 149.000
33.98000 163.000
34.00000 130.000
34.02000 140.000
34.04000 149.000
34.06000 143.000
34.08000 126.000
34.10000 122.000
34.12000 141.000
34.14000 143.000
34.16000 147.000
34.18000 119.000
34.20000 136.000
34.22000 112.000
34.24000 123.000
34.26000 136.000
34.28000 133.000
34.30000 125.000
34.32000 136.000
34.34000 136.000
34.36000 138.000
34.38000 160.000
34.40000 130.000
34.42000 134.000
34.44000 169.000
34.46000 141.000
34.48000 168.000
34.50000 152.000
34.52000 193.000
34.54000 145.000
34.56000 191.000
34.58000 187.000
34.60000 189.000
34.62000 196.000
34.64000 193.000
34.66000 211.000
34.68000 275.000
34.70000 218.000
34.72000 258.000
34.74000 256.000
34.76000 291.000
34.78000 289.000
34.80000 279.000
34.82000 270.000
34.84000 313.000
34.86000 256.000
34.88000 233.000
34.90000 231.000
34.92000 236.000
34.94000 236.000
34.96000 232.000
34.98000 209.000
35.00000 208.000
35.02000 215.000
35.04000 228.000
35.06000 242.000
35.08000 205.000
35.10000 236.000
35.12000 197.000
35.14000 205.000
35.16000 188.000
35.18000 203.000
35.20000 227.000
35.22000 239.000
35.24000 208.000
35.26000 259.000
35.28000 210.000
35.30000 270.000
35.32000 272.000
35.34000 250.000
35.36000 298.000
35.38000 301.000
35.40000 316.000
35.42000 321.000
35.44000 335.000
35.46000 344.000
35.48000 310.000
35.50000 335.000
35.52000 324.000
35.54000 265.000
35.56000 273.000
35.58000 239.000
35.60000 240.000
35.62000 201.000
35.64000 200.000
35.66000 189.000
35.68000 170.000
35.70000 172.000
35.72000 162.000
35.74000 157.000
35.76000 165.000
35.78000 143.000
35.80000 176.000
35.82000 156.000
35.84000 175.000
35.86000 182.000
35.88000 190.000
35.90000 207.000
35.92000 211.000
35.94000 205.000
35.96000 218.000
35.98000 204.000
36.00000 201.000
36.02000 211.000
36.04000 186.000
36.06000 168.000
36.08000 184.000
36.10000 163.000
36.12000 140.000
36.14000 130.000
36.16000 151.000
36.18000 165.000
36.20000 145.000
36.22000 153.000
36.24000 173.000
36.26000 204.000
36.28000 159.000
36.30000 175.000
36.32000 169.000
36.34000 233.000
36.36000 210.000
36.38000 213.000
36.40000 200.000
36.42000 216.000
36.44000 234.000
36.46000 231.000
36.48000 240.000
36.50000 242.000
36.52000 222.000
36.54000 234.000
36.56000 202.000
36.58000 222.000
36.60000 202.000
36.62000 207.000
36.64000 210.000
36.66000 197.000
36.68000 229.000
36.70000 171.000
36.72000 195.000
36.74000 201.000
36.76000 220.000
36.78000 225.000
36.80000 219.000
36.82000 186.000
36.84000 209.000
36.86000 172.000
36.88000 192.000
36.90000 180.000
36.92000 166.000
36.94000 197.000
36.96000 146.000
36.98000 156.000
37.00000 134.000
37.02000 141.000
37.04000 146.000
37.06000 157.000
37.08000 176.000
37.10000 166.000
37.12000 190.000
37.14000 184.000
37.16000 155.000
37.18000 185.000
37.20000 178.000
37.22000 174.000
37.24000 181.000
37.26000 193.000
37.28000 175.000
37.30000 199.000
37.32000 178.000
37.34000 187.000
37.36000 184.000
37.38000 175.000
37.40000 172.000
37.42000 175.000
37.44000 163.000
37.46000 185.000
37.48000 186.000
37.50000 191.000
37.52000 157.000
37.54000 152.000
37.56000 146.000
37.58000 132.000
37.60000 145.000
37.62000 146.000
37.64000 108.000
37.66000 127.000
37.68000 142.000
37.70000 119.000
37.72000 129.000
37.74000 124.000
37.76000 140.000
37.78000 124.000
37.80000 142.000
37.82000 128.000
37.84000 136.000
37.86000 150.000
37.88000 113.000
37.90000 129.000
37.92000 132.000
37.94000 109.000
37.96000 151.000
37.98000 145.000
38.00000 130.000
38.02000 126.000
38.04000 128.000
38.06000 156.000
38.08000 142.000
38.10000 132.000
38.12000 158.000
38.14000 145.000
38.16000 160.000
38.18000 135.000
38.20000 164.000
38.22000 141.000
38.24000 152.000
38.26000 135.000
38.28000 141.000
38.30000 143.000
38.32000 125.000
38.34000 148.000
38.36000 152.000
38.38000 176.000
38.40000 184.000
38.42000 192.000
38.44000 206.000
38.46000 247.000
38.48000 234.000
38.50000 241.000
38.52000 259.000
38.54000 276.000
38.56000 263.000
38.58000 241.000
38.60000 255.000
38.62000 193.000
38.64000 182.000
38.66000 189.000
38.68000 163.000
38.70000 160.000
38.72000 177.000
38.74000 142.000
38.76000 150.000
38.78000 113.000
38.80000 157.000
38.82000 165.000
38.84000 138.000
38.86000 164.000
38.88000 177.000
38.90000 126.000
38.92000 162.000
38.94000 136.000
38.96000 158.000
38.98000 179.000
39.00000 144.000
39.02000 162.000
39.04000 165.000
39.06000 185.000
39.08000 150.000
39.10000 138.000
39.12000 151.000
39.14000 167.000
39.16000 149.000
39.18000 175.000
39.20000 157.000
39.22000 168.000
39.24000 147.000
39.26000 157.000
39.28000 164.000
39.30000 165.000
39.32000 166.000
39.34000 167.000
39.36000 183.000
39.38000 180.000
39.40000 180.000
39.42000 196.000
39.44000 193.000
39.46000 190.000
39.48000 196.000
39.50000 249.000
39.52000 226.000
39.54000 223.000
39.56000 220.000
39.58000 241.000
39.60000 248.000
39.62000 227.000
39.64000 235.000
39.66000 217.000
39.68000 228.000
39.70000 206.000
39.72000 208.000
39.74000 198.000
39.76000 185.000
39.78000 202.000
39.80000 181.000
39.82000 159.000
39.84000 178.000
39.86000 174.000
39.88000 150.000
39.90000 168.000
39.92000 200.000
39.94000 197.000
39.96000 188.000
39.98000 217.000
40.00000 210.000
40.02000 218.000
40.04000 228.000
40.06000 231.000
40.08000 239.000
40.10000 246.000
40.12000 253.000
40.14000 267.000
40.16000 268.000
40.18000 299.000
40.20000 359.000
40.22000 394.000
40.24000 395.000
40.26000 390.000
40.28000 471.000
40.30000 425.000
40.32000 469.000
40.34000 453.000
40.36000 425.000
40.38000 393.000
40.40000 421.000
40.42000 354.000
40.44000 347.000
40.46000 366.000
40.48000 352.000
40.50000 327.000
40.52000 284.000
40.54000 336.000
40.56000 313.000
40.58000 284.000
40.60000 318.000
40.62000 305.000
40.64000 297.000
40.66000 331.000
40.68000 348.000
40.70000 369.000
40.72000 373.000
40.74000 380.000
40.76000 439.000
40.78000 437.000
40.80000 429.000
40.82000 462.000
40.84000 449.000
40.86000 496.000
40.88000 499.000
40.90000 480.000
40.92000 453.000
40.94000 484.000
40.96000 498.000
40.98000 547.000
41.00000 490.000
41.02000 522.000
41.04000 540.000
41.06000 523.000
41.08000 478.000
41.10000 503.000
41.12000 551.000
41.14000 448.000
41.16000 412.000
41.18000 421.000
41.20000 428.000
41.22000 369.000
41.24000 352.000
41.26000 336.000
41.28000 326.000
41.30000 296.000
41.32000 284.000
41.34000 267.000
41.36000 245.000
41.38000 251.000
41.40000 215.000
41.42000 235.000
41.44000 206.000
41.46000 192.000
41.48000 211.000
41.50000 198.000
41.52000 197.000
41.54000 198.000
41.56000 181.000
41.58000 193.000
41.60000 169.000
41.62000 172.000
41.64000 202.000
41.66000 159.000
41.68000 208.000
41.70000 176.000
41.72000 178.000
41.74000 159.000
41.76000 187.000
41.78000 178.000
41.80000 208.000
41.82000 187.000
41.84000 165.000
41.86000 175.000
41.88000 193.000
41.90000 168.000
41.92000 172.000
41.94000 171.000
41.96000 198.000
41.98000 169.000
42.00000 157.000
42.02000 185.000
42.04000 162.000
42.06000 200.000
42.08000 189.000
42.10000 174.000
42.12000 180.000
42.14000 171.000
42.16000 168.000
42.18000 166.000
42.20000 190.000
42.22000 154.000
42.24000 198.000
42.26000 184.000
42.28000 193.000
42.30000 186.000
42.32000 187.000
42.34000 200.000
42.36000 208.000
42.38000 211.000
42.40000 189.000
42.42000 209.000
42.44000 206.000
42.46000 247.000
42.48000 240.000
42.50000 231.000
42.52000 281.000
42.54000 297.000
42.56000 384.000
42.58000 379.000
42.60000 396.000
42.62000 498.000
42.64000 527.000
42.66000 563.000
42.68000 550.000
42.70000 536.000
42.72000 526.000
42.74000 494.000
42.76000 464.000
42.78000 459.000
42.80000 444.000
42.82000 416.000
42.84000 442.000
42.86000 389.000
42.88000 332.000
42.90000 351.000
42.92000 336.000
42.94000 314.000
42.96000 296.000
42.98000 289.000
43.00000 246.000
43.02000 255.000
43.04000 232.000
43.06000 244.000
43.08000 229.000
43.10000 264.000
43.12000 213.000
43.14000 226.000
43.16000 203.000
43.18000 203.000
43.20000 210.000
43.22000 180.000
43.24000 209.000
43.26000 194.000
43.28000 190.000
43.30000 196.000
43.32000 167.000
43.34000 167.000
43.36000 205.000
43.38000 197.000
43.40000 172.000
43.42000 164.000
43.44000 168.000
43.46000 146.000
43.48000 182.000
43.50000 179.000
43.52000 184.000
43.54000 186.000
43.56000 186.000
43.58000 193.000
43.60000 203.000
43.62000 235.000
43.64000 225.000
43.66000 239.000
43.68000 205.000
43.70000 219.000
43.72000 238.000
43.74000 254.000
43.76000 257.000
43.78000 254.000
43.80000 263.000
43.82000 262.000
43.84000 252.000
43.86000 276.000
43.88000 292.000
43.90000 310.000
43.92000 302.000
43.94000 326.000
43.96000 303.000
43.98000 349.000
44.00000 301.000
44.02000 336.000
44.04000 356.000
44.06000 321.000
44.08000 297.000
44.10000 300.000
44.12000 273.000
44.14000 284.000
44.16000 294.000
44.18000 261.000
44.20000 246.000
44.22000 271.000
44.24000 222.000
44.26000 212.000
44.28000 213.000
44.30000 204.000
44.32000 180.000
44.34000 205.000
44.36000 189.000
44.38000 164.000
44.40000 158.000
44.42000 171.000
44.44000 168.000
44.46000 149.000
44.48000 169.000
44.50000 151.000
44.52000 144.000
44.54000 157.000
44.56000 157.000
44.58000 159.000
44.60000 152.000
44.62000 157.000
44.64000 144.000
44.66000 136.000
44.68000 152.000
44.70000 130.000
44.72000 132.000
44.74000 147.000
44.76000 152.000
44.78000 150.000
44.80000 142.000
44.82000 144.000
44.84000 131.000
44.86000 148.000
44.88000 140.000
44.90000 133.000
44.92000 145.000
44.94000 155.000
44.96000 158.000
44.98000 161.000
45.00000 177.000
45.02000 171.000
45.04000 163.000
45.06000 171.000
45.08000 143.000
45.10000 129.000
45.12000 139.000
45.14000 134.000
45.16000 136.000
45.18000 140.000
45.20000 138.000
45.22000 154.000
45.24000 150.000
45.26000 173.000
45.28000 154.000
45.30000 178.000
45.32000 161.000
45.34000 168.000
45.36000 154.000
45.38000 158.000
45.40000 166.000
45.42000 157.000
45.44000 143.000
45.46000 142.000
45.48000 154.000
45.50000 138.000
45.52000 163.000
45.54000 129.000
45.56000 142.000
45.58000 161.000
45.60000 127.000
45.62000 154.000
45.64000 153.000
45.66000 156.000
45.68000 157.000
45.70000 143.000
45.72000 156.000
45.74000 160.000
45.76000 145.000
45.78000 152.000
45.80000 157.000
45.82000 152.000
45.84000 153.000
45.86000 184.000
45.88000 156.000
45.90000 174.000
45.92000 189.000
45.94000 162.000
45.96000 190.000
45.98000 206.000
46.00000 230.000
46.02000 271.000
46.04000 293.000
46.06000 339.000
46.08000 376.000
46.10000 430.000
46.12000 444.000
46.14000 427.000
46.16000 427.000
46.18000 384.000
46.20000 372.000
46.22000 347.000
46.24000 321.000
46.26000 282.000
46.28000 276.000
46.30000 199.000
46.32000 183.000
46.34000 181.000
46.36000 205.000
46.38000 153.000
46.40000 168.000
46.42000 202.000
46.44000 174.000
46.46000 183.000
46.48000 217.000
46.50000 189.000
46.52000 190.000
46.54000 190.000
46.56000 190.000
46.58000 178.000
46.60000 175.000
46.62000 203.000
46.64000 181.000
46.66000 181.000
46.68000 187.000
46.70000 164.000
46.72000 168.000
46.74000 187.000
46.76000 180.000
46.78000 176.000
46.80000 183.000
46.82000 169.000
46.84000 178.000
46.86000 191.000
46.88000 157.000
46.90000 151.000
46.92000 159.000
46.94000 183.000
46.96000 190.000
46.98000 183.000
47.00000 203.000
47.02000 216.000
47.04000 216.000
47.06000 278.000
47.08000 264.000
47.10000 279.000
47.12000 277.000
47.14000 286.000
47.16000 264.000
47.18000 229.000
47.20000 240.000
47.22000 226.000
47.24000 177.000
47.26000 189.000
47.28000 158.000
47.30000 173.000
47.32000 154.000
47.34000 171.000
47.36000 156.000
47.38000 148.000
47.40000 112.000
47.42000 134.000
47.44000 136.000
47.46000 138.000
47.48000 129.000
47.50000 141.000
47.52000 143.000
47.54000 142.000
47.56000 129.000
47.58000 147.000
47.60000 157.000
47.62000 139.000
47.64000 145.000
47.66000 134.000
47.68000 169.000
47.70000 137.000
47.72000 135.000
47.74000 139.000
47.76000 151.000
47.78000 137.000
47.80000 117.000
47.82000 144.000
47.84000 146.000
47.86000 130.000
47.88000 141.000
47.90000 143.000
47.92000 149.000
47.94000 167.000
47.96000 155.000
47.98000 136.000
48.00000 150.000
48.02000 158.000
48.04000 128.000
48.06000 140.000
48.08000 136.000
48.10000 160.000
48.12000 115.000
48.14000 151.000
48.16000 147.000
48.18000 158.000
48.20000 156.000
48.22000 169.000
48.24000 169.000
48.26000 157.000
48.28000 165.000
48.30000 172.000
48.32000 152.000
48.34000 151.000
48.36000 150.000
48.38000 146.000
48.40000 137.000
48.42000 148.000
48.44000 119.000
48.46000 116.000
48.48000 145.000
48.50000 136.000
48.52000 143.000
48.54000 141.000
48.56000 142.000
48.58000 140.000
48.60000 124.000
48.62000 152.000
48.64000 155.000
48.66000 116.000
48.68000 153.000
48.70000 149.000
48.72000 140.000
48.74000 144.000
48.76000 152.000
48.78000 162.000
48.80000 160.000
48.82000 177.000
48.84000 175.000
48.86000 167.000
48.88000 151.000
48.90000 159.000
48.92000 148.000
48.94000 178.000
48.96000 149.000
48.98000 178.000
49.00000 175.000
49.02000 160.000
49.04000 148.000
49.06000 149.000
49.08000 161.000
49.10000 153.000
49.12000 151.000
49.14000 148.000
49.16000 143.000
49.18000 154.000
49.20000 144.000
49.22000 141.000
49.24000 143.000
49.26000 133.000
49.28000 164.000
49.30000 165.000
49.32000 156.000
49.34000 145.000
49.36000 153.000
49.38000 140.000
49.40000 168.000
49.42000 161.000
49.44000 145.000
49.46000 184.000
49.48000 180.000
49.50000 211.000
49.52000 218.000
49.54000 236.000
49.56000 251.000
49.58000 276.000
49.60000 326.000
49.62000 312.000
49.64000 355.000
49.66000 386.000
49.68000 414.000
49.70000 386.000
49.72000 362.000
49.74000 351.000
49.76000 283.000
49.78000 273.000
49.80000 273.000
49.82000 207.000
49.84000 229.000
49.86000 182.000
49.88000 181.000
49.90000 171.000
49.92000 145.000
49.94000 158.000
49.96000 130.000
49.98000 163.000
50.00000 135.000
50.02000 135.000
50.04000 140.000
50.06000 140.000
50.08000 152.000
50.10000 136.000
50.12000 166.000
50.14000 163.000
50.16000 134.000
50.18000 147.000
50.20000 144.000
50.22000 160.000
50.24000 138.000
50.26000 150.000
50.28000 138.000
50.30000 149.000
50.32000 152.000
50.34000 124.000
50.36000 137.000
50.38000 149.000
50.40000 131.000
50.42000 116.000
50.44000 153.000
50.46000 128.000
50.48000 152.000
50.50000 151.000
50.52000 137.000
50.54000 140.000
50.56000 137.000
50.58000 163.000
50.60000 126.000
50.62000 160.000
50.64000 136.000
50.66000 151.000
50.68000 131.000
50.70000 153.000
50.72000 174.000
50.74000 181.000
50.76000 146.000
50.78000 177.000
50.80000 148.000
50.82000 162.000
50.84000 135.000
50.86000 164.000
50.88000 152.000
50.90000 143.000
50.92000 154.000
50.94000 156.000
50.96000 127.000
50.98000 150.000
51.00000 153.000
51.02000 140.000
51.04000 136.000
51.06000 158.000
51.08000 136.000
51.10000 122.000
51.12000 137.000
51.14000 144.000
51.16000 148.000
51.18000 135.000
51.20000 136.000
51.22000 143.000
51.24000 128.000
51.26000 136.000
51.28000 151.000
51.30000 117.000
51.32000 121.000
51.34000 150.000
51.36000 111.000
51.38000 136.000
51.40000 133.000
51.42000 147.000
51.44000 132.000
51.46000 122.000
51.48000 137.000
51.50000 138.000
51.52000 119.000
51.54000 138.000
51.56000 158.000
51.58000 125.000
51.60000 118.000
51.62000 143.000
51.64000 116.000
51.66000 129.000
51.68000 143.000
51.70000 160.000
51.72000 142.000
51.74000 141.000
51.76000 143.000
51.78000 133.000
51.80000 112.000
51.82000 131.000
51.84000 137.000
51.86000 139.000
51.88000 129.000
51.90000 114.000
51.92000 109.000
51.94000 121.000
51.96000 147.000
51.98000 120.000
52.00000 122.000
52.02000 107.000
52.04000 125.000
52.06000 106.000
52.08000 106.000
52.10000 110.000
52.12000 119.000
52.14000 93.000
52.16000 113.000
52.18000 109.000
52.20000 114.000
52.22000 130.000
52.24000 129.000
52.26000 127.000
52.28000 142.000
52.30000 127.000
52.32000 110.000
52.34000 126.000
52.36000 118.000
52.38000 125.000
52.40000 102.000
52.42000 132.000
52.44000 124.000
52.46000 162.000
52.48000 170.000
52.50000 159.000
52.52000 189.000
52.54000 159.000
52.56000 182.000
52.58000 162.000
52.60000 168.000
52.62000 191.000
52.64000 169.000
52.66000 182.000
52.68000 174.000
52.70000 182.000
52.72000 188.000
52.74000 214.000
52.76000 176.000
52.78000 213.000
52.80000 210.000
52.82000 189.000
52.84000 204.000
52.86000 205.000
52.88000 213.000
52.90000 211.000
52.92000 218.000
52.94000 206.000
52.96000 223.000
52.98000 245.000
53.00000 216.000
53.02000 216.000
53.04000 229.000
53.06000 232.000
53.08000 215.000
53.10000 237.000
53.12000 216.000
53.14000 202.000
53.16000 202.000
53.18000 188.000
53.20000 190.000
53.22000 178.000
53.24000 196.000
53.26000 199.000
53.28000 183.000
53.30000 203.000
53.32000 213.000
53.34000 143.000
53.36000 158.000
53.38000 175.000
53.40000 166.000
53.42000 161.000
53.44000 151.000
53.46000 144.000
53.48000 149.000
53.50000 146.000
53.52000 176.000
53.54000 170.000
53.56000 164.000
53.58000 182.000
53.60000 222.000
53.62000 242.000
53.64000 259.000
53.66000 270.000
53.68000 274.000
53.70000 264.000
53.72000 276.000
53.74000 246.000
53.76000 203.000
53.78000 193.000
53.80000 204.000
53.82000 196.000
53.84000 180.000
53.86000 170.000
53.88000 168.000
53.90000 140.000
53.92000 148.000
53.94000 142.000
53.96000 140.000
53.98000 146.000
54.00000 135.000
54.02000 112.000
54.04000 124.000
54.06000 132.000
54.08000 128.000
54.10000 137.000
54.12000 117.000
54.14000 112.000
54.16000 124.000
54.18000 117.000
54.20000 130.000
54.22000 108.000
54.24000 112.000
54.26000 121.000
54.28000 112.000
54.30000 89.000
54.32000 128.000
54.34000 109.000
54.36000 111.000
54.38000 112.000
54.40000 83.000
54.42000 116.000
54.44000 98.000
54.46000 101.000
54.48000 116.000
54.50000 100.000
54.52000 90.000
54.54000 109.000
54.56000 109.000
54.58000 114.000
54.60000 121.000
54.62000 99.000
54.64000 91.000
54.66000 112.000
54.68000 85.000
54.70000 106.000
54.72000 103.000
54.74000 118.000
54.76000 101.000
54.78000 105.000
54.80000 87.000
54.82000 104.000
54.84000 115.000
54.86000 99.000
54.88000 107.000
54.90000 105.000
54.92000 94.000
54.94000 115.000
54.96000 123.000
54.98000 118.000
55.00000 105.000
55.02000 106.000
55.04000 96.000
55.06000 122.000
55.08000 103.000
55.10000 93.000
55.12000 100.000
55.14000 97.000
55.16000 123.000
55.18000 107.000
55.20000 100.000
55.22000 100.000
55.24000 98.000
55.26000 100.000
55.28000 106.000
55.30000 108.000
55.32000 107.000
55.34000 107.000
55.36000 91.000
55.38000 93.000
55.40000 111.000
55.42000 99.000
55.44000 103.000
55.46000 92.000
55.48000 90.000
55.50000 82.000
55.52000 103.000
55.54000 93.000
55.56000 91.000
55.58000 81.000
55.60000 100.000
55.62000 89.000
55.64000 90.000
55.66000 81.000
55.68000 96.000
55.70000 108.000
55.72000 105.000
55.74000 105.000
55.76000 108.000
55.78000 94.000
55.80000 106.000
55.82000 100.000
55.84000 100.000
55.86000 115.000
55.88000 110.000
55.90000 96.000
55.92000 108.000
55.94000 106.000
55.96000 112.000
55.98000 95.000
56.00000 103.000
56.02000 103.000
56.04000 84.000
56.06000 99.000
56.08000 106.000
56.10000 103.000
56.12000 99.000
56.14000 122.000
56.16000 87.000
56.18000 98.000
56.20000 116.000
56.22000 141.000
56.24000 122.000
56.26000 114.000
56.28000 107.000
56.30000 124.000
56.32000 133.000
56.34000 122.000
56.36000 113.000
56.38000 134.000
56.40000 128.000
56.42000 131.000
56.44000 114.000
56.46000 127.000
56.48000 150.000
56.50000 141.000
56.52000 159.000
56.54000 136.000
56.56000 149.000
56.58000 169.000
56.60000 150.000
56.62000 168.000
56.64000 155.000
56.66000 160.000
56.68000 125.000
56.70000 139.000
56.72000 140.000
56.74000 146.000
56.76000 173.000
56.78000 147.000
56.80000 141.000
56.82000 150.000
56.84000 139.000
56.86000 129.000
56.88000 134.000
56.90000 132.000
56.92000 112.000
56.94000 121.000
56.96000 102.000
56.98000 112.000
57.00000 105.000
57.02000 132.000
57.04000 117.000
57.06000 121.000
57.08000 123.000
57.10000 114.000
57.12000 109.000
57.14000 136.000
57.16000 111.000
57.18000 127.000
57.20000 112.000
57.22000 112.000
57.24000 123.000
57.26000 98.000
57.28000 125.000
57.30000 93.000
57.32000 92.000
57.34000 117.000
57.36000 103.000
57.38000 97.000
57.40000 113.000
57.42000 109.000
57.44000 105.000
57.46000 85.000
57.48000 74.000
57.50000 104.000
57.52000 100.000
57.54000 96.000
57.56000 119.000
57.58000 106.000
57.60000 109.000
57.62000 116.000
57.64000 103.000
57.66000 141.000
57.68000 120.000
57.70000 126.000
57.72000 139.000
57.74000 123.000
57.76000 150.000
57.78000 140.000
57.80000 145.000
57.82000 145.000
57.84000 144.000
57.86000 139.000
57.88000 145.000
57.90000 135.000
57.92000 116.000
57.94000 114.000
57.96000 115.000
57.98000 109.000
58.00000 115.000
58.02000 111.000
58.04000 102.000
58.06000 117.000
58.08000 123.000
58.10000 121.000
58.12000 109.000
58.14000 109.000
58.16000 119.000
58.18000 115.000
58.20000 129.000
58.22000 101.000
58.24000 128.000
58.26000 109.000
58.28000 105.000
58.30000 120.000
58.32000 141.000
58.34000 152.000
58.36000 113.000
58.38000 128.000
58.40000 148.000
58.42000 144.000
58.44000 147.000
58.46000 145.000
58.48000 163.000
58.50000 181.000
58.52000 161.000
58.54000 172.000
58.56000 187.000
58.58000 193.000
58.60000 183.000
58.62000 214.000
58.64000 221.000
58.66000 210.000
58.68000 239.000
58.70000 234.000
58.72000 245.000
58.74000 254.000
58.76000 272.000
58.78000 309.000
58.80000 377.000
58.82000 400.000
58.84000 469.000
58.86000 545.000
58.88000 657.000
58.90000 631.000
58.92000 605.000
58.94000 564.000
58.96000 509.000
58.98000 495.000
59.00000 413.000
59.02000 371.000
59.04000 392.000
59.06000 356.000
59.08000 277.000
59.10000 239.000
59.12000 203.000
59.14000 177.000
59.16000 122.000
59.18000 145.000
59.20000 125.000
59.22000 122.000
59.24000 117.000
59.26000 106.000
59.28000 118.000
59.30000 131.000
59.32000 118.000
59.34000 108.000
59.36000 112.000
59.38000 126.000
59.40000 126.000
59.42000 135.000
59.44000 144.000
59.46000 156.000
59.48000 149.000
59.50000 138.000
59.52000 144.000
59.54000 164.000
59.56000 146.000
59.58000 131.000
59.60000 129.000
59.62000 148.000
59.64000 119.000
59.66000 131.000
59.68000 124.000
59.70000 97.000
59.72000 110.000
59.74000 112.000
59.76000 99.000
59.78000 83.000
59.80000 103.000
59.82000 107.000
59.84000 84.000
59.86000 93.000
59.88000 109.000
59.90000 105.000
59.92000 91.000
59.94000 97.000
59.96000 94.000
59.98000 115.000
60.00000 117.000
60.02000 107.000
60.04000 112.000
60.06000 111.000
60.08000 125.000
60.10000 145.000
60.12000 131.000
60.14000 139.000
60.16000 157.000
60.18000 139.000
60.20000 134.000
60.22000 124.000
60.24000 150.000
60.26000 159.000
60.28000 138.000
60.30000 132.000
60.32000 144.000
60.34000 166.000
60.36000 128.000
60.38000 109.000
60.40000 116.000
60.42000 128.000
60.44000 114.000
60.46000 109.000
60.48000 112.000
60.50000 93.000
60.52000 95.000
60.54000 104.000
60.56000 95.000
60.58000 98.000
60.60000 98.000
60.62000 89.000
60.64000 103.000
60.66000 111.000
60.68000 91.000
60.70000 77.000
60.72000 93.000
60.74000 105.000
60.76000 99.000
60.78000 86.000
60.80000 94.000
60.82000 91.000
60.84000 94.000
60.86000 96.000
60.88000 97.000
60.90000 89.000
60.92000 107.000
60.94000 75.000
60.96000 87.000
60.98000 92.000
61.00000 81.000
61.02000 76.000
61.04000 100.000
61.06000 101.000
61.08000 85.000
61.10000 90.000
61.12000 81.000
61.14000 112.000
61.16000 101.000
61.18000 96.000
61.20000 106.000
61.22000 103.000
61.24000 84.000
61.26000 113.000
61.28000 103.000
61.30000 94.000
61.32000 118.000
61.34000 103.000
61.36000 121.000
61.38000 132.000
61.40000 116.000
61.42000 134.000
61.44000 135.000
61.46000 119.000
61.48000 111.000
61.50000 149.000
61.52000 132.000
61.54000 132.000
61.56000 132.000
61.58000 136.000
61.60000 112.000
61.62000 144.000
61.64000 131.000
61.66000 142.000
61.68000 124.000
61.70000 111.000
61.72000 131.000
61.74000 128.000
61.76000 158.000
61.78000 138.000
61.80000 138.000
61.82000 163.000
61.84000 153.000
61.86000 141.000
61.88000 153.000
61.90000 126.000
61.92000 159.000
61.94000 130.000
61.96000 152.000
61.98000 152.000
62.00000 125.000
62.02000 149.000
62.04000 125.000
62.06000 148.000
62.08000 117.000
62.10000 110.000
62.12000 111.000
62.14000 116.000
62.16000 143.000
62.18000 142.000
62.20000 137.000
62.22000 134.000
62.24000 144.000
62.26000 117.000
62.28000 124.000
62.30000 130.000
62.32000 153.000
62.34000 133.000
62.36000 133.000
62.38000 118.000
62.40000 119.000
62.42000 118.000
62.44000 139.000
62.46000 138.000
62.48000 122.000
62.50000 124.000
62.52000 138.000
62.54000 136.000
62.56000 152.000
62.58000 139.000
62.60000 120.000
62.62000 165.000
62.64000 133.000
62.66000 158.000
62.68000 145.000
62.70000 140.000
62.72000 132.000
62.74000 134.000
62.76000 139.000
62.78000 139.000
62.80000 132.000
62.82000 149.000
62.84000 121.000
62.86000 123.000
62.88000 133.000
62.90000 126.000
62.92000 137.000
62.94000 130.000
62.96000 111.000
62.98000 114.000
63.00000 121.000
63.02000 116.000
63.04000 118.000
63.06000 124.000
63.08000 121.000
63.10000 121.000
63.12000 141.000
63.14000 119.000
63.16000 151.000
63.18000 139.000
63.20000 120.000
63.22000 135.000
63.24000 102.000
63.26000 121.000
63.28000 119.000
63.30000 138.000
63.32000 123.000
63.34000 125.000
63.36000 127.000
63.38000 131.000
63.40000 125.000
63.42000 111.000
63.44000 125.000
63.46000 119.000
63.48000 126.000
63.50000 113.000
63.52000 114.000
63.54000 122.000
63.56000 103.000
63.58000 131.000
63.60000 124.000
63.62000 123.000
63.64000 149.000
63.66000 126.000
63.68000 127.000
63.70000 125.000
63.72000 116.000
63.74000 126.000
63.76000 120.000
63.78000 118.000
63.80000 131.000
63.82000 119.000
63.84000 124.000
63.86000 128.000
63.88000 128.000
63.90000 133.000
63.92000 155.000
63.94000 149.000
63.96000 138.000
63.98000 152.000
64.00000 166.000
64.02000 158.000
64.04000 158.000
64.06000 140.000
64.08000 135.000
64.10000 144.000
64.12000 154.000
64.14000 127.000
64.16000 132.000
64.18000 147.000
64.20000 136.000
64.22000 124.000
64.24000 136.000
64.26000 141.000
64.28000 123.000
64.30000 139.000
64.32000 126.000
64.34000 106.000
64.36000 128.000
64.38000 131.000
64.40000 142.000
64.42000 113.000
64.44000 125.000
64.46000 142.000
64.48000 135.000
64.50000 170.000
64.52000 162.000
64.54000 162.000
64.56000 192.000
64.58000 216.000
64.60000 242.000
64.62000 232.000
64.64000 248.000
64.66000 262.000
64.68000 219.000
64.70000 229.000
64.72000 219.000
64.74000 248.000
64.76000 203.000
64.78000 214.000
64.80000 192.000
64.82000 189.000
64.84000 166.000
64.86000 179.000
64.88000 155.000
64.90000 127.000
64.92000 141.000
64.94000 119.000
64.96000 123.000
64.98000 138.000
65.00000 156.000
65.02000 137.000
65.04000 165.000
65.06000 154.000
65.08000 166.000
65.10000 178.000
65.12000 160.000
65.14000 186.000
65.16000 203.000
65.18000 170.000
65.20000 212.000
65.22000 198.000
65.24000 181.000
65.26000 190.000
65.28000 173.000
65.30000 155.000
65.32000 177.000
65.34000 170.000
65.36000 151.000
65.38000 157.000
65.40000 123.000
65.42000 137.000
65.44000 137.000
65.46000 135.000
65.48000 121.000
65.50000 134.000
65.52000 151.000
65.54000 133.000
65.56000 138.000
65.58000 128.000
65.60000 131.000
65.62000 139.000
65.64000 124.000
65.66000 134.000
65.68000 144.000
65.70000 139.000
65.72000 139.000
65.74000 163.000
65.76000 158.000
65.78000 168.000
65.80000 148.000
65.82000 152.000
65.84000 160.000
65.86000 156.000
65.88000 161.000
65.90000 141.000
65.92000 136.000
65.94000 145.000
65.96000 140.000
65.98000 145.000
66.00000 158.000
66.02000 142.000
66.04000 121.000
66.06000 136.000
66.08000 138.000
66.10000 123.000
66.12000 129.000
66.14000 116.000
66.16000 128.000
66.18000 120.000
66.20000 107.000
66.22000 128.000
66.24000 123.000
66.26000 126.000
66.28000 143.000
66.30000 126.000
66.32000 114.000
66.34000 110.000
66.36000 139.000
66.38000 115.000
66.40000 111.000
66.42000 129.000
66.44000 104.000
66.46000 118.000
66.48000 134.000
66.50000 126.000
66.52000 109.000
66.54000 118.000
66.56000 107.000
66.58000 109.000
66.60000 98.000
66.62000 113.000
66.64000 112.000
66.66000 98.000
66.68000 106.000
66.70000 124.000
66.72000 121.000
66.74000 125.000
66.76000 118.000
66.78000 101.000
66.80000 109.000
66.82000 103.000
66.84000 110.000
66.86000 123.000
66.88000 121.000
66.90000 107.000
66.92000 119.000
66.94000 124.000
66.96000 126.000
66.98000 113.000
67.00000 113.000
67.02000 118.000
67.04000 124.000
67.06000 116.000
67.08000 127.000
67.10000 122.000
67.12000 101.000
67.14000 101.000
67.16000 115.000
67.18000 108.000
67.20000 102.000
67.22000 119.000
67.24000 111.000
67.26000 106.000
67.28000 112.000
67.30000 93.000
67.32000 119.000
67.34000 126.000
67.36000 114.000
67.38000 119.000
67.40000 92.000
67.42000 117.000
67.44000 103.000
67.46000 109.000
67.48000 99.000
67.50000 108.000
67.52000 91.000
67.54000 109.000
67.56000 120.000
67.58000 117.000
67.60000 135.000
67.62000 99.000
67.64000 127.000
67.66000 107.000
67.68000 133.000
67.70000 108.000
67.72000 116.000
67.74000 123.000
67.76000 135.000
67.78000 143.000
67.80000 136.000
67.82000 131.000
67.84000 144.000
67.86000 152.000
67.88000 150.000
67.90000 122.000
67.92000 136.000
67.94000 147.000
67.96000 143.000
67.98000 140.000
68.00000 143.000
68.02000 124.000
68.04000 134.000
68.06000 125.000
68.08000 131.000
68.10000 117.000
68.12000 123.000
68.14000 116.000
68.16000 131.000
68.18000 122.000
68.20000 117.000
68.22000 130.000
68.24000 121.000
68.26000 102.000
68.28000 109.000
68.30000 100.000
68.32000 108.000
68.34000 116.000
68.36000 110.000
68.38000 102.000
68.40000 112.000
68.42000 95.000
68.44000 106.000
68.46000 114.000
68.48000 112.000
68.50000 122.000
68.52000 119.000
68.54000 99.000
68.56000 124.000
68.58000 112.000
68.60000 124.000
68.62000 114.000
68.64000 111.000
68.66000 128.000
68.68000 122.000
68.70000 107.000
68.72000 114.000
68.74000 112.000
68.76000 109.000
68.78000 132.000
68.80000 104.000
68.82000 107.000
68.84000 125.000
68.86000 116.000
68.88000 125.000
68.90000 125.000
68.92000 110.000
68.94000 114.000
68.96000 118.000
68.98000 84.000
69.00000 143.000
69.02000 104.000
69.04000 102.000
69.06000 111.000
69.08000 117.000
69.10000 104.000
69.12000 136.000
69.14000 128.000
69.16000 90.000
69.18000 113.000
69.20000 140.000
69.22000 139.000
69.24000 100.000
69.26000 130.000
69.28000 107.000
69.30000 135.000
69.32000 112.000
69.34000 125.000
69.36000 127.000
69.38000 149.000
69.40000 119.000
69.42000 129.000
69.44000 146.000
69.46000 126.000
69.48000 143.000
69.50000 113.000
69.52000 116.000
69.54000 137.000
69.56000 148.000
69.58000 138.000
69.60000 146.000
69.62000 136.000
69.64000 138.000
69.66000 152.000
69.68000 144.000
69.70000 130.000
69.72000 123.000
69.74000 149.000
69.76000 159.000
69.78000 143.000
69.80000 151.000
69.82000 130.000
69.84000 138.000
69.86000 132.000
69.88000 151.000
69.90000 134.000
69.92000 139.000
69.94000 156.000
69.96000 143.000
69.98000 143.000
70.00000 139.000
70.02000 137.000
70.04000 155.000
70.06000 115.000
70.08000 151.000
70.10000 129.000
70.12000 124.000
70.14000 131.000
70.16000 118.000
70.18000 136.000
70.20000 140.000
70.22000 116.000
70.24000 124.000
70.26000 128.000
70.28000 120.000
70.30000 120.000
70.32000 129.000
70.34000 133.000
70.36000 109.000
70.38000 146.000
70.40000 155.000
70.42000 125.000
70.44000 128.000
70.46000 146.000
70.48000 128.000
70.50000 146.000
70.52000 146.000
70.54000 167.000
70.56000 144.000
70.58000 192.000
70.60000 160.000
70.62000 195.000
70.64000 215.000
70.66000 209.000
70.68000 225.000
70.70000 245.000
70.72000 262.000
70.74000 271.000
70.76000 309.000
70.78000 353.000
70.80000 398.000
70.82000 424.000
70.84000 485.000
70.86000 514.000
70.88000 484.000
70.90000 512.000
70.92000 513.000
70.94000 436.000
70.96000 436.000
70.98000 425.000
71.00000 389.000
71.02000 384.000
71.04000 413.000
71.06000 390.000
71.08000 319.000
71.10000 317.000
71.12000 315.000
71.14000 278.000
71.16000 255.000
71.18000 273.000
71.20000 202.000
71.22000 199.000
71.24000 220.000
71.26000 211.000
71.28000 214.000
71.30000 196.000
71.32000 177.000
71.34000 175.000
71.36000 196.000
71.38000 190.000
71.40000 200.000
71.42000 170.000
71.44000 186.000
71.46000 182.000
71.48000 172.000
71.50000 165.000
71.52000 173.000
71.54000 163.000
71.56000 160.000
71.58000 173.000
71.60000 153.000
71.62000 146.000
71.64000 142.000
71.66000 156.000
71.68000 167.000
71.70000 154.000
71.72000 157.000
71.74000 147.000
71.76000 125.000
71.78000 121.000
71.80000 133.000
71.82000 143.000
71.84000 157.000
71.86000 147.000
71.88000 132.000
71.90000 138.000
71.92000 132.000
71.94000 114.000
71.96000 130.000
71.98000 162.000
72.00000 128.000
72.02000 130.000
72.04000 135.000
72.06000 106.000
72.08000 131.000
72.10000 145.000
72.12000 123.000
72.14000 128.000
72.16000 129.000
72.18000 127.000
72.20000 116.000
72.22000 139.000
72.24000 109.000
72.26000 133.000
72.28000 123.000
72.30000 143.000
72.32000 132.000
72.34000 142.000
72.36000 135.000
72.38000 117.000
72.40000 131.000
72.42000 135.000
72.44000 150.000
72.46000 135.000
72.48000 135.000
72.50000 136.000
72.52000 140.000
72.54000 115.000
72.56000 138.000
72.58000 141.000
72.60000 143.000
72.62000 138.000
72.64000 154.000
72.66000 157.000
72.68000 147.000
72.70000 145.000
72.72000 151.000
72.74000 160.000
72.76000 170.000
72.78000 154.000
72.80000 157.000
72.82000 208.000
72.84000 222.000
72.86000 175.000
72.88000 211.000
72.90000 191.000
72.92000 171.000
72.94000 204.000
72.96000 188.000
72.98000 207.000
73.00000 184.000
73.02000 173.000
73.04000 208.000
73.06000 194.000
73.08000 189.000
73.10000 206.000
73.12000 169.000
73.14000 183.000
73.16000 180.000
73.18000 161.000
73.20000 178.000
73.22000 176.000
73.24000 178.000
73.26000 180.000
73.28000 149.000
73.30000 180.000
73.32000 148.000
73.34000 139.000
73.36000 158.000
73.38000 121.000
73.40000 112.000
73.42000 121.000
73.44000 122.000
73.46000 127.000
73.48000 119.000
73.50000 111.000
73.52000 113.000
73.54000 121.000
73.56000 116.000
73.58000 107.000
73.60000 106.000
73.62000 107.000
73.64000 104.000
73.66000 102.000
73.68000 95.000
73.70000 113.000
73.72000 96.000
73.74000 117.000
73.76000 108.000
73.78000 117.000
73.80000 94.000
73.82000 114.000
73.84000 90.000
73.86000 103.000
73.88000 108.000
73.90000 100.000
73.92000 90.000
73.94000 83.000
73.96000 80.000
73.98000 86.000
74.00000 91.000
74.02000 94.000
74.04000 117.000
74.06000 100.000
74.08000 79.000
74.10000 99.000
74.12000 108.000
74.14000 97.000
74.16000 91.000
74.18000 116.000
74.20000 96.000
74.22000 96.000
74.24000 100.000
74.26000 95.000
74.28000 97.000
74.30000 107.000
74.32000 89.000
74.34000 93.000
74.36000 108.000
74.38000 102.000
74.40000 92.000
74.42000 84.000
74.44000 117.000
74.46000 118.000
74.48000 98.000
74.50000 110.000
74.52000 100.000
74.54000 113.000
74.56000 94.000
74.58000 85.000
74.60000 114.000
74.62000 81.000
74.64000 94.000
74.66000 100.000
74.68000 92.000
74.70000 104.000
74.72000 102.000
74.74000 109.000
74.76000 117.000
74.78000 89.000
74.80000 106.000
74.82000 104.000
74.84000 110.000
74.86000 103.000
74.88000 122.000
74.90000 101.000
74.92000 99.000
74.94000 133.000
74.96000 111.000
74.98000 122.000
75.00000 94.000
