2 2169
2.02 2021
2.04 1929
2.06 1823
2.08 1757
2.1 1673
2.12 1542
2.14 1496
2.16 1396
2.18 1394
2.2 1444
2.22 1283
2.24 1349
2.26 1301
2.28 1264
2.3 1308
2.32 1296
2.34 1201
2.36 1218
2.38 1206
2.4 1228
2.42 1186
2.44 1135
2.46 1116
2.48 1105
2.5 1115
2.52 1137
2.54 1104
2.56 1055
2.58 1113
2.6 1029
2.62 1057
2.64 1034
2.66 1043
2.68 1042
2.7 1016
2.72 944
2.74 1004
2.76 933
2.78 999
2.8 957
2.82 994
2.84 900
2.86 920
2.88 919
2.9 886
2.92 905
2.94 899
2.96 923
2.98 849
3 824
3.02 838
3.04 827
3.06 791
3.08 832
3.1 827
3.12 779
3.14 805
3.16 754
3.18 770
3.2 774
3.22 806
3.24 821
3.26 722
3.28 804
3.3 788
3.32 746
3.34 763
3.36 735
3.38 708
3.4 723
3.42 711
3.44 750
3.46 769
3.48 761
3.5 655
3.52 750
3.54 705
3.56 693
3.58 685
3.6 657
3.62 655
3.64 667
3.66 665
3.68 680
3.7 651
3.72 630
3.74 663
3.76 660
3.78 600
3.8 603
3.82 638
3.84 654
3.86 647
3.88 645
3.9 602
3.92 624
3.94 578
3.96 590
3.98 599
4 579
4.02 589
4.04 604
4.06 584
4.08 583
4.1 562
4.12 528
4.14 567
4.16 553
4.18 555
4.2 547
4.22 544
4.24 494
4.26 545
4.28 559
4.3 532
4.32 576
4.34 488
4.36 523
4.38 558
4.4 508
4.42 527
4.44 556
4.46 485
4.48 512
4.5 548
4.52 498
4.54 518
4.56 503
4.58 499
4.6 511
4.62 471
4.64 522
4.66 493
4.68 501
4.7 543
4.72 484
4.74 506
4.76 492
4.78 465
4.8 459
4.82 474
4.84 474
4.86 447
4.88 478
4.9 460
4.92 500
4.94 472
4.96 452
4.98 441
5 454
5.02 449
5.04 459
5.06 421
5.08 430
5.1 418
5.12 406
5.14 398
5.16 473
5.18 435
5.2 413
5.22 430
5.24 407
5.26 394
5.28 414
5.3 432
5.32 401
5.34 444
5.36 401
5.38 418
5.4 423
5.42 418
5.44 357
5.46 376
5.48 411
5.5 398
5.52 413
5.54 382
5.56 390
5.58 423
5.6 394
5.62 370
5.64 411
5.66 405
5.68 368
5.7 415
5.72 392
5.74 390
5.76 375
5.78 382
5.8 360
5.82 390
5.84 396
5.86 343
5.88 350
5.9 355
5.92 359
5.94 360
5.96 359
5.98 351
6 350
6.02 346
6.04 362
6.06 381
6.08 361
6.1 330
6.12 347
6.14 347
6.16 348
6.18 386
6.2 344
6.22 314
6.24 332
6.26 358
6.28 351
6.3 363
6.32 339
6.34 362
6.36 335
6.38 339
6.4 317
6.42 341
6.44 371
6.46 321
6.48 261
6.5 340
6.52 332
6.54 294
6.56 339
6.58 326
6.6 330
6.62 327
6.64 333
6.66 309
6.68 354
6.7 346
6.72 315
6.74 327
6.76 306
6.78 334
6.8 333
6.82 312
6.84 298
6.86 329
6.88 329
6.9 305
6.92 321
6.94 289
6.96 315
6.98 306
7 282
7.02 322
7.04 327
7.06 302
7.08 358
7.1 298
7.12 298
7.14 294
7.16 292
7.18 308
7.2 346
7.22 299
7.24 280
7.26 271
7.28 291
7.3 320
7.32 298
7.34 283
7.36 302
7.38 289
7.4 316
7.42 272
7.44 307
7.46 301
7.48 289
7.5 293
7.52 290
7.54 320
7.56 303
7.58 315
7.6 300
7.62 266
7.64 277
7.66 292
7.68 313
7.7 289
7.72 258
7.74 293
7.76 282
7.78 260
7.8 280
7.82 244
7.84 258
7.86 244
7.88 287
7.9 271
7.92 267
7.94 271
7.96 259
7.98 275
8 275
8.02 283
8.04 279
8.06 274
8.08 258
8.1 255
8.12 279
8.14 270
8.16 260
8.18 280
8.2 268
8.22 261
8.24 271
8.26 251
8.28 233
8.3 231
8.32 248
8.34 264
8.36 231
8.38 256
8.4 257
8.42 245
8.44 240
8.46 266
8.48 277
8.5 261
8.52 213
8.54 250
8.56 242
8.58 242
8.6 256
8.62 250
8.64 242
8.66 238
8.68 229
8.7 228
8.72 242
8.74 221
8.76 232
8.78 244
8.8 223
8.82 224
8.84 212
8.86 244
8.88 218
8.9 244
8.92 209
8.94 232
8.96 207
8.98 225
9 216
9.02 227
9.04 254
9.06 212
9.08 218
9.1 239
9.12 231
9.14 249
9.16 217
9.18 228
9.2 228
9.22 219
9.24 223
9.26 201
9.28 218
9.3 208
9.32 217
9.34 182
9.36 199
9.38 210
9.4 203
9.42 214
9.44 191
9.46 206
9.48 203
9.5 205
9.52 209
9.54 202
9.56 206
9.58 227
9.6 229
9.62 210
9.64 222
9.66 215
9.68 200
9.7 187
9.72 204
9.74 212
9.76 220
9.78 228
9.8 236
9.82 203
9.84 213
9.86 211
9.88 225
9.9 202
9.92 221
9.94 228
9.96 228
9.98 215
10 202
10.02 206
10.04 198
10.06 206
10.08 204
10.1 195
10.12 209
10.14 248
10.16 215
10.18 216
10.2 203
10.22 198
10.24 199
10.26 211
10.28 188
10.3 222
10.32 197
10.34 209
10.36 208
10.38 203
10.4 192
10.42 203
10.44 198
10.46 192
10.48 162
10.5 199
10.52 201
10.54 200
10.56 173
10.58 195
10.6 174
10.62 189
10.64 177
10.66 181
10.68 192
10.7 194
10.72 186
10.74 198
10.76 187
10.78 169
10.8 176
10.82 183
10.84 196
10.86 212
10.88 168
10.9 179
10.92 152
10.94 201
10.96 204
10.98 147
11 167
11.02 185
11.04 176
11.06 199
11.08 191
11.1 177
11.12 170
11.14 177
11.16 175
11.18 177
11.2 199
11.22 183
11.24 177
11.26 199
11.28 184
11.3 205
11.32 183
11.34 168
11.36 193
11.38 186
11.4 177
11.42 166
11.44 176
11.46 186
11.48 182
11.5 192
11.52 183
11.54 184
11.56 173
11.58 177
11.6 177
11.62 190
11.64 196
11.66 173
11.68 175
11.7 179
11.72 173
11.74 179
11.76 153
11.78 171
11.8 177
11.82 167
11.84 178
11.86 192
11.88 198
11.9 157
11.92 173
11.94 185
11.96 174
11.98 174
12 188
12.02 190
12.04 183
12.06 186
12.08 206
12.1 212
12.12 212
12.14 198
12.16 176
12.18 198
12.2 170
12.22 168
12.24 161
12.26 160
12.28 174
12.3 184
12.32 150
12.34 179
12.36 169
12.38 177
12.4 164
12.42 187
12.44 171
12.46 178
12.48 174
12.5 164
12.52 134
12.54 160
12.56 215
12.58 179
12.6 167
12.62 170
12.64 155
12.66 157
12.68 144
12.7 135
12.72 170
12.74 168
12.76 162
12.78 158
12.8 165
12.82 149
12.84 145
12.86 156
12.88 170
12.9 147
12.92 161
12.94 167
12.96 167
12.98 160
13 155
13.02 141
13.04 134
13.06 168
13.08 163
13.1 152
13.12 162
13.14 140
13.16 148
13.18 177
13.2 155
13.22 157
13.24 149
13.26 147
13.28 170
13.3 129
13.32 134
13.34 146
13.36 174
13.38 141
13.4 147
13.42 130
13.44 149
13.46 137
13.48 143
13.5 169
13.52 161
13.54 143
13.56 133
13.58 156
13.6 138
13.62 153
13.64 148
13.66 131
13.68 135
13.7 161
13.72 161
13.74 125
13.76 163
13.78 145
13.8 152
13.82 166
13.84 146
13.86 144
13.88 165
13.9 152
13.92 133
13.94 154
13.96 129
13.98 131
14 141
14.02 139
14.04 153
14.06 133
14.08 167
14.1 133
14.12 157
14.14 157
14.16 159
14.18 142
14.2 165
14.22 141
14.24 145
14.26 154
14.28 135
14.3 133
14.32 132
14.34 188
14.36 145
14.38 172
14.4 142
14.42 159
14.44 149
14.46 145
14.48 167
14.5 143
14.52 133
14.54 163
14.56 146
14.58 135
14.6 151
14.62 149
14.64 116
14.66 140
14.68 136
14.7 138
14.72 136
14.74 137
14.76 146
14.78 149
14.8 157
14.82 117
14.84 121
14.86 130
14.88 136
14.9 132
14.92 146
14.94 125
14.96 139
14.98 128
15 154
15.02 116
15.04 135
15.06 130
15.08 125
15.1 131
15.12 136
15.14 137
15.16 150
15.18 131
15.2 134
15.22 164
15.24 151
15.26 130
15.28 134
15.3 151
15.32 151
15.34 141
15.36 150
15.38 150
15.4 163
15.42 148
15.44 155
15.46 165
15.48 152
15.5 165
15.52 150
15.54 147
15.56 148
15.58 147
15.6 156
15.62 134
15.64 161
15.66 174
15.68 157
15.7 178
15.72 160
15.74 182
15.76 175
15.78 179
15.8 199
15.82 197
15.84 176
15.86 193
15.88 194
15.9 201
15.92 190
15.94 185
15.96 228
15.98 193
16 229
16.02 249
16.04 244
16.06 238
16.08 242
16.1 258
16.12 217
16.14 225
16.16 194
16.18 188
16.2 162
16.22 162
16.24 165
16.26 162
16.28 146
16.3 118
16.32 151
16.34 118
16.36 130
16.38 119
16.4 122
16.42 130
16.44 134
16.46 118
16.48 131
16.5 121
16.52 117
16.54 118
16.56 134
16.58 101
16.6 129
16.62 129
16.64 113
16.66 109
16.68 121
16.7 134
16.72 100
16.74 126
16.76 129
16.78 140
16.8 122
16.82 127
16.84 121
16.86 127
16.88 116
16.9 119
16.92 118
16.94 122
16.96 115
16.98 110
17 93
17.02 101
17.04 105
17.06 120
17.08 120
17.1 117
17.12 136
17.14 133
17.16 148
17.18 119
17.2 137
17.22 128
17.24 122
17.26 144
17.28 139
17.3 148
17.32 149
17.34 173
17.36 176
17.38 176
17.4 193
17.42 196
17.44 187
17.46 195
17.48 193
17.5 195
17.52 177
17.54 155
17.56 173
17.58 155
17.6 127
17.62 117
17.64 133
17.66 118
17.68 121
17.7 117
17.72 121
17.74 117
17.76 130
17.78 126
17.8 96
17.82 117
17.84 126
17.86 107
17.88 120
17.9 127
17.92 139
17.94 120
17.96 108
17.98 86
18 124
18.02 121
18.04 103
18.06 110
18.08 135
18.1 119
18.12 131
18.14 122
18.16 128
18.18 116
18.2 136
18.22 113
18.24 112
18.26 152
18.28 142
18.3 142
18.32 146
18.34 143
18.36 121
18.38 129
18.4 140
18.42 116
18.44 122
18.46 120
18.48 111
18.5 117
18.52 114
18.54 111
18.56 105
18.58 134
18.6 97
18.62 117
18.64 110
18.66 130
18.68 102
18.7 111
18.72 97
18.74 112
18.76 105
18.78 122
18.8 118
18.82 116
18.84 109
18.86 130
18.88 101
18.9 107
18.92 108
18.94 112
18.96 118
18.98 99
19 104
19.02 107
19.04 93
19.06 126
19.08 93
19.1 101
19.12 95
19.14 117
19.16 117
19.18 100
19.2 131
19.22 103
19.24 96
19.26 111
19.28 118
19.3 110
19.32 111
19.34 106
19.36 110
19.38 132
19.4 113
19.42 116
19.44 118
19.46 102
19.48 114
19.5 119
19.52 111
19.54 126
19.56 114
19.58 126
19.6 97
19.62 116
19.64 110
19.66 110
19.68 105
19.7 119
19.72 100
19.74 105
19.76 113
19.78 124
19.8 115
19.82 135
19.84 121
19.86 101
19.88 102
19.9 111
19.92 108
19.94 127
19.96 104
19.98 97
20 101
20.02 113
20.04 123
20.06 109
20.08 130
20.1 112
20.12 105
20.14 122
20.16 117
20.18 101
20.2 106
20.22 104
20.24 134
20.26 114
20.28 114
20.3 100
20.32 114
20.34 118
20.36 108
20.38 127
20.4 116
20.42 126
20.44 105
20.46 111
20.48 115
20.5 109
20.52 108
20.54 107
20.56 101
20.58 110
20.6 131
20.62 112
20.64 119
20.66 100
20.68 109
20.7 112
20.72 110
20.74 124
20.76 120
20.78 128
20.8 135
20.82 125
20.84 136
20.86 125
20.88 116
20.9 130
20.92 122
20.94 151
20.96 111
20.98 132
21 108
21.02 122
21.04 122
21.06 112
21.08 122
21.1 110
21.12 132
21.14 123
21.16 118
21.18 101
21.2 109
21.22 125
21.24 134
21.26 120
21.28 97
21.3 118
21.32 92
21.34 122
21.36 120
21.38 96
21.4 99
21.42 117
21.44 125
21.46 113
21.48 115
21.5 96
21.52 127
21.54 107
21.56 101
21.58 120
21.6 96
21.62 128
21.64 115
21.66 124
21.68 104
21.7 114
21.72 122
21.74 94
21.76 111
21.78 120
21.8 115
21.82 130
21.84 123
21.86 119
21.88 117
21.9 116
21.92 140
21.94 119
21.96 121
21.98 116
22 127
22.02 120
22.04 100
22.06 137
22.08 117
22.1 118
22.12 110
22.14 130
22.16 123
22.18 116
22.2 133
22.22 122
22.24 122
22.26 132
22.28 120
22.3 139
22.32 134
22.34 157
22.36 140
22.38 154
22.4 139
22.42 106
22.44 140
22.46 123
22.48 168
22.5 147
22.52 125
22.54 128
22.56 117
22.58 138
22.6 142
22.62 164
22.64 118
22.66 134
22.68 127
22.7 141
22.72 152
22.74 146
22.76 139
22.78 154
22.8 161
22.82 161
22.84 142
22.86 171
22.88 170
22.9 211
22.92 201
22.94 204
22.96 236
22.98 204
23 174
23.02 212
23.04 196
23.06 220
23.08 174
23.1 176
23.12 179
23.14 180
23.16 168
23.18 165
23.2 162
23.22 154
23.24 157
23.26 136
23.28 146
23.3 144
23.32 143
23.34 136
23.36 123
23.38 115
23.4 140
23.42 167
23.44 148
23.46 130
23.48 123
23.5 134
23.52 128
23.54 146
23.56 148
23.58 138
23.6 147
23.62 138
23.64 138
23.66 139
23.68 147
23.7 142
23.72 141
23.74 146
23.76 155
23.78 133
23.8 138
23.82 156
23.84 140
23.86 158
23.88 155
23.9 162
23.92 171
23.94 167
23.96 158
23.98 199
24 232
24.02 237
24.04 301
24.06 378
24.08 422
24.1 546
24.12 724
24.14 865
24.16 1050
24.18 1360
24.2 1424
24.22 1547
24.24 1471
24.26 1398
24.28 1047
24.3 908
24.32 716
24.34 619
24.36 623
24.38 548
24.4 548
24.42 505
24.44 460
24.46 467
24.48 398
24.5 328
24.52 290
24.54 232
24.56 191
24.58 182
24.6 161
24.62 150
24.64 181
24.66 162
24.68 168
24.7 157
24.72 151
24.74 141
24.76 151
24.78 136
24.8 133
24.82 124
24.84 116
24.86 156
24.88 125
24.9 139
24.92 124
24.94 126
24.96 128
24.98 144
25 135
25.02 141
25.04 127
25.06 151
25.08 122
25.1 132
25.12 137
25.14 137
25.16 138
25.18 138
25.2 124
25.22 138
25.24 136
25.26 139
25.28 162
25.3 168
25.32 190
25.34 148
25.36 165
25.38 210
25.4 249
25.42 292
25.44 334
25.46 393
25.48 570
25.5 663
25.52 752
25.54 832
25.56 907
25.58 952
25.6 948
25.62 760
25.64 681
25.66 507
25.68 421
25.7 318
25.72 246
25.74 181
25.76 173
25.78 165
25.8 181
25.82 145
25.84 155
25.86 145
25.88 130
25.9 141
25.92 142
25.94 160
25.96 138
25.98 155
26 154
26.02 178
26.04 203
26.06 171
26.08 202
26.1 199
26.12 189
26.14 192
26.16 219
26.18 216
26.2 180
26.22 189
26.24 173
26.26 182
26.28 152
26.3 152
26.32 127
26.34 132
26.36 149
26.38 121
26.4 137
26.42 137
26.44 156
26.46 111
26.48 147
26.5 164
26.52 149
26.54 162
26.56 161
26.58 196
26.6 184
26.62 207
26.64 215
26.66 247
26.68 266
26.7 229
26.72 234
26.74 268
26.76 251
26.78 219
26.8 245
26.82 235
26.84 180
26.86 181
26.88 173
26.9 145
26.92 147
26.94 154
26.96 157
26.98 179
27 148
27.02 169
27.04 167
27.06 149
27.08 176
27.1 182
27.12 230
27.14 213
27.16 213
27.18 265
27.2 260
27.22 278
27.24 310
27.26 354
27.28 385
27.3 470
27.32 505
27.34 528
27.36 599
27.38 590
27.4 648
27.42 630
27.44 613
27.46 535
27.48 473
27.5 414
27.52 335
27.54 321
27.56 276
27.58 254
27.6 213
27.62 203
27.64 211
27.66 209
27.68 236
27.7 237
27.72 187
27.74 219
27.76 216
27.78 237
27.8 252
27.82 277
27.84 245
27.86 267
27.88 283
27.9 300
27.92 277
27.94 302
27.96 317
27.98 319
28 348
28.02 331
28.04 349
28.06 365
28.08 411
28.1 426
28.12 453
28.14 520
28.16 453
28.18 530
28.2 494
28.22 487
28.24 460
28.26 431
28.28 372
28.3 410
28.32 313
28.34 304
28.36 265
28.38 235
28.4 212
28.42 197
28.44 184
28.46 159
28.48 138
28.5 198
28.52 190
28.54 180
28.56 189
28.58 160
28.6 160
28.62 153
28.64 171
28.66 150
28.68 158
28.7 141
28.72 140
28.74 139
28.76 122
28.78 152
28.8 109
28.82 139
28.84 126
28.86 138
28.88 126
28.9 115
28.92 129
28.94 130
28.96 133
28.98 132
29 128
29.02 138
29.04 128
29.06 134
29.08 135
29.1 137
29.12 158
29.14 110
29.16 156
29.18 132
29.2 144
29.22 143
29.24 131
29.26 151
29.28 146
29.3 152
29.32 159
29.34 177
29.36 159
29.38 139
29.4 163
29.42 146
29.44 162
29.46 174
29.48 196
29.5 230
29.52 206
29.54 228
29.56 247
29.58 273
29.6 285
29.62 282
29.64 275
29.66 304
29.68 342
29.7 319
29.72 341
29.74 400
29.76 450
29.78 430
29.8 530
29.82 498
29.84 449
29.86 427
29.88 366
29.9 314
29.92 278
29.94 236
29.96 200
29.98 183
30 163
30.02 172
30.04 146
30.06 137
30.08 151
30.1 128
30.12 121
30.14 145
30.16 137
30.18 137
30.2 121
30.22 118
30.24 120
30.26 136
30.28 127
30.3 137
30.32 139
30.34 137
30.36 159
30.38 163
30.4 154
30.42 155
30.44 183
30.46 168
30.48 172
30.5 177
30.52 222
30.54 206
30.56 236
30.58 240
30.6 257
30.62 301
30.64 352
30.66 370
30.68 426
30.7 496
30.72 555
30.74 604
30.76 676
30.78 739
30.8 918
30.82 1097
30.84 1324
30.86 1967
30.88 2516
30.9 3444
30.92 4520
30.94 5556
30.96 6488
30.98 6837
31 6798
31.02 6232
31.04 5206
31.06 4138
31.08 3080
31.1 2172
31.12 1527
31.14 1043
31.16 799
31.18 662
31.2 650
31.22 544
31.24 584
31.26 561
31.28 517
31.3 479
31.32 464
31.34 477
31.36 438
31.38 442
31.4 463
31.42 497
31.44 529
31.46 554
31.48 596
31.5 608
31.52 582
31.54 596
31.56 520
31.58 412
31.6 361
31.62 332
31.64 346
31.66 273
31.68 259
31.7 240
31.72 214
31.74 216
31.76 214
31.78 223
31.8 210
31.82 271
31.84 272
31.86 309
31.88 390
31.9 452
31.92 572
31.94 641
31.96 732
31.98 784
32 776
32.02 784
32.04 745
32.06 663
32.08 582
32.1 573
32.12 477
32.14 498
32.16 471
32.18 497
32.2 621
32.22 768
32.24 844
32.26 885
32.28 950
32.3 1008
32.32 1037
32.34 1098
32.36 1045
32.38 1049
32.4 1073
32.42 1146
32.44 1222
32.46 1331
32.48 1398
32.5 1425
32.52 1422
32.54 1458
32.56 1353
32.58 1279
32.6 996
32.62 911
32.64 773
32.66 580
32.68 520
32.7 454
32.72 456
32.74 456
32.76 475
32.78 409
32.8 439
32.82 470
32.84 456
32.86 444
32.88 443
32.9 426
32.92 417
32.94 342
32.96 329
32.98 293
33 269
33.02 218
33.04 202
33.06 163
33.08 145
33.1 153
33.12 129
33.14 132
33.16 117
33.18 135
33.2 141
33.22 118
33.24 105
33.26 122
33.28 107
33.3 108
33.32 127
33.34 106
33.36 103
33.38 89
33.4 103
33.42 100
33.44 112
33.46 99
33.48 95
33.5 88
33.52 101
33.54 91
33.56 77
33.58 85
33.6 79
33.62 91
33.64 93
33.66 104
33.68 82
33.7 84
33.72 97
33.74 89
33.76 88
33.78 96
33.8 96
33.82 84
33.84 89
33.86 116
33.88 83
33.9 88
33.92 115
33.94 83
33.96 119
33.98 81
34 88
34.02 98
34.04 78
34.06 94
34.08 86
34.1 106
34.12 96
34.14 91
34.16 102
34.18 80
34.2 109
34.22 88
34.24 93
34.26 86
34.28 99
34.3 104
34.32 109
34.34 131
34.36 110
34.38 125
34.4 125
34.42 140
34.44 123
34.46 129
34.48 115
34.5 177
34.52 172
34.54 190
34.56 180
34.58 195
34.6 205
34.62 246
34.64 271
34.66 274
34.68 295
34.7 306
34.72 325
34.74 351
34.76 358
34.78 327
34.8 310
34.82 324
34.84 297
34.86 283
34.88 285
34.9 266
34.92 246
34.94 257
34.96 219
34.98 258
35 252
35.02 219
35.04 225
35.06 204
35.08 216
35.1 189
35.12 183
35.14 206
35.16 207
35.18 206
35.2 186
35.22 193
35.24 238
35.26 235
35.28 241
35.3 308
35.32 292
35.34 312
35.36 330
35.38 351
35.4 331
35.42 406
35.44 397
35.46 394
35.48 417
35.5 377
35.52 366
35.54 309
35.56 260
35.58 211
35.6 215
35.62 189
35.64 156
35.66 144
35.68 131
35.7 131
35.72 123
35.74 135
35.76 182
35.78 183
35.8 204
35.82 221
35.84 217
35.86 269
35.88 239
35.9 246
35.92 253
35.94 235
35.96 224
35.98 199
36 183
36.02 148
36.04 145
36.06 139
36.08 130
36.1 102
36.12 107
36.14 105
36.16 90
36.18 103
36.2 104
36.22 94
36.24 90
36.26 82
36.28 96
36.3 130
36.32 124
36.34 121
36.36 146
36.38 139
36.4 148
36.42 175
36.44 164
36.46 190
36.48 208
36.5 192
36.52 182
36.54 176
36.56 171
36.58 151
36.6 169
36.62 148
36.64 119
36.66 132
36.68 127
36.7 113
36.72 109
36.74 103
36.76 112
36.78 103
36.8 108
36.82 97
36.84 111
36.86 104
36.88 90
36.9 97
36.92 88
36.94 83
36.96 102
36.98 85
37 100
37.02 91
37.04 83
37.06 84
37.08 84
37.1 93
37.12 74
37.14 97
37.16 91
37.18 89
37.2 94
37.22 84
37.24 87
37.26 77
37.28 87
37.3 104
37.32 89
37.34 110
37.36 99
37.38 93
37.4 91
37.42 121
37.44 98
37.46 95
37.48 103
37.5 117
37.52 104
37.54 122
37.56 120
37.58 147
37.6 138
37.62 164
37.64 148
37.66 125
37.68 170
37.7 165
37.72 143
37.74 147
37.76 143
37.78 117
37.8 142
37.82 122
37.84 102
37.86 104
37.88 104
37.9 114
37.92 100
37.94 102
37.96 81
37.98 85
38 100
38.02 105
38.04 100
38.06 60
38.08 81
38.1 80
38.12 84
38.14 58
38.16 75
38.18 78
38.2 76
38.22 69
38.24 84
38.26 78
38.28 72
38.3 90
38.32 89
38.34 73
38.36 84
38.38 90
38.4 100
38.42 104
38.44 94
38.46 99
38.48 101
38.5 110
38.52 108
38.54 99
38.56 108
38.58 105
38.6 90
38.62 78
38.64 87
38.66 87
38.68 82
38.7 92
38.72 96
38.74 86
38.76 88
38.78 83
38.8 86
38.82 63
38.84 72
38.86 69
38.88 79
38.9 58
38.92 85
38.94 78
38.96 72
38.98 75
39 68
39.02 70
39.04 85
39.06 89
39.08 73
39.1 79
39.12 69
39.14 62
39.16 70
39.18 70
39.2 77
39.22 77
39.24 92
39.26 99
39.28 92
39.3 78
39.32 86
39.34 80
39.36 93
39.38 113
39.4 130
39.42 121
39.44 123
39.46 133
39.48 161
39.5 163
39.52 164
39.54 159
39.56 126
39.58 139
39.6 127
39.62 116
39.64 129
39.66 117
39.68 115
39.7 103
39.72 94
39.74 87
39.76 108
39.78 92
39.8 92
39.82 99
39.84 108
39.86 103
39.88 103
39.9 114
39.92 106
39.94 137
39.96 134
39.98 124
40 126
40.02 126
40.04 147
40.06 171
40.08 164
40.1 143
40.12 171
40.14 166
40.16 167
40.18 189
40.2 172
40.22 176
40.24 216
40.26 184
40.28 180
40.3 197
40.32 172
40.34 164
40.36 159
40.38 149
40.4 147
40.42 176
40.44 194
40.46 164
40.48 164
40.5 174
40.52 195
40.54 207
40.56 172
40.58 168
40.6 223
40.62 193
40.64 198
40.66 189
40.68 225
40.7 210
40.72 205
40.74 199
40.76 220
40.78 240
40.8 212
40.82 243
40.84 254
40.86 285
40.88 256
40.9 279
40.92 277
40.94 310
40.96 328
40.98 349
41 309
41.02 300
41.04 298
41.06 294
41.08 287
41.1 252
41.12 258
41.14 234
41.16 250
41.18 216
41.2 213
41.22 201
41.24 196
41.26 214
41.28 205
41.3 192
41.32 179
41.34 164
41.36 147
41.38 168
41.4 166
41.42 127
41.44 147
41.46 145
41.48 172
41.5 135
41.52 151
41.54 164
41.56 165
41.58 155
41.6 128
41.62 136
41.64 134
41.66 147
41.68 136
41.7 109
41.72 108
41.74 138
41.76 112
41.78 126
41.8 110
41.82 110
41.84 78
41.86 84
41.88 107
41.9 126
41.92 109
41.94 97
41.96 112
41.98 131
42 89
42.02 94
42.04 120
42.06 107
42.08 115
42.1 91
42.12 104
42.14 128
42.16 132
42.18 113
42.2 129
42.22 123
42.24 124
42.26 116
42.28 132
42.3 132
42.32 143
42.34 128
42.36 125
42.38 151
42.4 152
42.42 151
42.44 152
42.46 148
42.48 179
42.5 195
42.52 212
42.54 274
42.56 347
42.58 387
42.6 451
42.62 517
42.64 589
42.66 559
42.68 529
42.7 534
42.72 463
42.74 400
42.76 362
42.78 299
42.8 265
42.82 208
42.84 175
42.86 187
42.88 165
42.9 130
42.92 147
42.94 135
42.96 134
42.98 111
43 133
43.02 114
43.04 122
43.06 108
43.08 108
43.1 119
43.12 124
43.14 118
43.16 151
43.18 141
43.2 157
43.22 143
43.24 146
43.26 151
43.28 149
43.3 136
43.32 126
43.34 130
43.36 148
43.38 130
43.4 133
43.42 136
43.44 113
43.46 105
43.48 107
43.5 141
43.52 123
43.54 122
43.56 107
43.58 129
43.6 122
43.62 124
43.64 146
43.66 142
43.68 140
43.7 137
43.72 153
43.74 170
43.76 133
43.78 142
43.8 155
43.82 144
43.84 160
43.86 139
43.88 183
43.9 162
43.92 184
43.94 155
43.96 147
43.98 165
44 152
44.02 155
44.04 151
44.06 150
44.08 152
44.1 128
44.12 126
44.14 125
44.16 116
44.18 122
44.2 120
44.22 93
44.24 113
44.26 102
44.28 96
44.3 91
44.32 105
44.34 93
44.36 74
44.38 92
44.4 80
44.42 79
44.44 75
44.46 67
44.48 66
44.5 70
44.52 73
44.54 60
44.56 71
44.58 70
44.6 92
44.62 78
44.64 86
44.66 87
44.68 92
44.7 71
44.72 83
44.74 76
44.76 87
44.78 92
44.8 78
44.82 70
44.84 84
44.86 92
44.88 85
44.9 82
44.92 85
44.94 80
44.96 89
44.98 75
45 86
45.02 90
45.04 102
45.06 133
45.08 114
45.1 112
45.12 125
45.14 118
45.16 133
45.18 114
45.2 95
45.22 117
45.24 109
45.26 95
45.28 99
45.3 111
45.32 92
45.34 86
45.36 103
45.38 87
45.4 108
45.42 134
45.44 127
45.46 108
45.48 110
45.5 98
45.52 114
45.54 102
45.56 133
45.58 90
45.6 108
45.62 114
45.64 119
45.66 104
45.68 90
45.7 117
45.72 95
45.74 77
45.76 105
45.78 92
45.8 82
45.82 111
45.84 112
45.86 107
45.88 107
45.9 104
45.92 105
45.94 119
45.96 145
45.98 158
46 208
46.02 272
46.04 300
46.06 326
46.08 411
46.1 443
46.12 495
46.14 475
46.16 455
46.18 407
46.2 406
46.22 358
46.24 297
46.26 227
46.28 187
46.3 187
46.32 141
46.34 121
46.36 127
46.38 105
46.4 93
46.42 105
46.44 95
46.46 88
46.48 85
46.5 83
46.52 83
46.54 84
46.56 88
46.58 99
46.6 88
46.62 81
46.64 103
46.66 89
46.68 81
46.7 90
46.72 83
46.74 89
46.76 84
46.78 84
46.8 96
46.82 80
46.84 85
46.86 94
46.88 102
46.9 124
46.92 96
46.94 112
46.96 125
46.98 143
47 164
47.02 202
47.04 234
47.06 282
47.08 282
47.1 300
47.12 261
47.14 267
47.16 203
47.18 211
47.2 189
47.22 161
47.24 151
47.26 125
47.28 93
47.3 96
47.32 93
47.34 84
47.36 88
47.38 76
47.4 77
47.42 86
47.44 67
47.46 66
47.48 76
47.5 84
47.52 85
47.54 74
47.56 78
47.58 84
47.6 70
47.62 91
47.64 79
47.66 93
47.68 83
47.7 80
47.72 86
47.74 98
47.76 88
47.78 91
47.8 95
47.82 95
47.84 78
47.86 82
47.88 88
47.9 97
47.92 111
47.94 80
47.96 87
47.98 104
48 80
48.02 95
48.04 91
48.06 98
48.08 96
48.1 72
48.12 99
48.14 91
48.16 97
48.18 99
48.2 91
48.22 105
48.24 95
48.26 94
48.28 99
48.3 110
48.32 105
48.34 90
48.36 84
48.38 84
48.4 77
48.42 86
48.44 71
48.46 68
48.48 69
48.5 97
48.52 75
48.54 80
48.56 82
48.58 82
48.6 83
48.62 102
48.64 102
48.66 118
48.68 108
48.7 127
48.72 123
48.74 119
48.76 161
48.78 185
48.8 180
48.82 178
48.84 184
48.86 168
48.88 169
48.9 180
48.92 183
48.94 165
48.96 143
48.98 162
49 135
49.02 121
49.04 101
49.06 116
49.08 92
49.1 113
49.12 92
49.14 99
49.16 93
49.18 84
49.2 105
49.22 90
49.24 71
49.26 80
49.28 76
49.3 76
49.32 104
49.34 99
49.36 98
49.38 99
49.4 105
49.42 134
49.44 127
49.46 121
49.48 141
49.5 169
49.52 196
49.54 236
49.56 219
49.58 318
49.6 308
49.62 418
49.64 430
49.66 457
49.68 420
49.7 427
49.72 364
49.74 381
49.76 297
49.78 274
49.8 244
49.82 225
49.84 181
49.86 147
49.88 151
49.9 153
49.92 146
49.94 123
49.96 132
49.98 140
50 135
50.02 119
50.04 164
50.06 152
50.08 125
50.1 143
50.12 140
50.14 142
50.16 137
50.18 117
50.2 91
50.22 133
50.24 117
50.26 95
50.28 91
50.3 116
50.32 99
50.34 114
50.36 107
50.38 91
50.4 101
50.42 112
50.44 106
50.46 109
50.48 88
50.5 112
50.52 93
50.54 112
50.56 130
50.58 106
50.6 120
50.62 132
50.64 102
50.66 125
50.68 119
50.7 121
50.72 136
50.74 108
50.76 105
50.78 101
50.8 108
50.82 102
50.84 102
50.86 113
50.88 97
50.9 110
50.92 123
50.94 94
50.96 91
50.98 100
51 88
51.02 107
51.04 97
51.06 110
51.08 77
51.1 86
51.12 68
51.14 84
51.16 85
51.18 90
51.2 75
51.22 62
51.24 65
51.26 79
51.28 78
51.3 65
51.32 71
51.34 73
51.36 79
51.38 74
51.4 77
51.42 69
51.44 68
51.46 59
51.48 71
51.5 72
51.52 56
51.54 73
51.56 72
51.58 73
51.6 83
51.62 80
51.64 77
51.66 82
51.68 75
51.7 73
51.72 79
51.74 75
51.76 71
51.78 74
51.8 75
51.82 74
51.84 69
51.86 64
51.88 71
51.9 60
51.92 77
51.94 68
51.96 70
51.98 60
52 80
52.02 56
52.04 57
52.06 53
52.08 60
52.1 73
52.12 54
52.14 54
52.16 73
52.18 66
52.2 66
52.22 74
52.24 71
52.26 82
52.28 64
52.3 74
52.32 89
52.34 77
52.36 92
52.38 90
52.4 84
52.42 79
52.44 72
52.46 69
52.48 81
52.5 94
52.52 85
52.54 113
52.56 100
52.58 88
52.6 103
52.62 109
52.64 111
52.66 96
52.68 108
52.7 95
52.72 123
52.74 109
52.76 95
52.78 99
52.8 112
52.82 94
52.84 94
52.86 121
52.88 115
52.9 93
52.92 102
52.94 95
52.96 98
52.98 112
53 113
53.02 90
53.04 90
53.06 93
53.08 110
53.1 118
53.12 102
53.14 104
53.16 87
53.18 99
53.2 92
53.22 97
53.24 97
53.26 69
53.28 94
53.3 95
53.32 94
53.34 89
53.36 93
53.38 96
53.4 108
53.42 76
53.44 100
53.46 103
53.48 102
53.5 117
53.52 117
53.54 168
53.56 190
53.58 214
53.6 253
53.62 258
53.64 295
53.66 278
53.68 292
53.7 266
53.72 244
53.74 240
53.76 220
53.78 195
53.8 201
53.82 147
53.84 151
53.86 143
53.88 121
53.9 134
53.92 103
53.94 101
53.96 103
53.98 103
54 111
54.02 80
54.04 72
54.06 97
54.08 87
54.1 109
54.12 103
54.14 87
54.16 75
54.18 86
54.2 76
54.22 90
54.24 82
54.26 71
54.28 67
54.3 72
54.32 57
54.34 74
54.36 66
54.38 66
54.4 81
54.42 66
54.44 68
54.46 51
54.48 55
54.5 78
54.52 65
54.54 60
54.56 73
54.58 76
54.6 69
54.62 63
54.64 65
54.66 67
54.68 60
54.7 67
54.72 62
54.74 60
54.76 77
54.78 78
54.8 73
54.82 70
54.84 81
54.86 71
54.88 84
54.9 85
54.92 88
54.94 70
54.96 77
54.98 89
55 74
55.02 89
55.04 85
55.06 72
55.08 81
55.1 102
55.12 91
55.14 101
55.16 99
55.18 85
55.2 94
55.22 91
55.24 96
55.26 90
55.28 89
55.3 85
55.32 104
55.34 103
55.36 95
55.38 108
55.4 89
55.42 94
55.44 96
55.46 83
55.48 85
55.5 89
55.52 86
55.54 81
55.56 82
55.58 93
55.6 82
55.62 103
55.64 82
55.66 111
55.68 119
55.7 109
55.72 95
55.74 104
55.76 96
55.78 107
55.8 104
55.82 102
55.84 102
55.86 102
55.88 91
55.9 91
55.92 99
55.94 93
55.96 76
55.98 86
56 82
56.02 83
56.04 78
56.06 92
56.08 82
56.1 74
56.12 77
56.14 80
56.16 87
56.18 84
56.2 80
56.22 76
56.24 92
56.26 90
56.28 85
56.3 72
56.32 75
56.34 83
56.36 68
56.38 79
56.4 87
56.42 71
56.44 81
56.46 71
56.48 88
56.5 92
56.52 84
56.54 90
56.56 105
56.58 90
56.6 101
56.62 100
56.64 130
56.66 92
56.68 104
56.7 102
56.72 91
56.74 115
56.76 97
56.78 90
56.8 96
56.82 66
56.84 72
56.86 67
56.88 96
56.9 60
56.92 60
56.94 59
56.96 71
56.98 76
57 83
57.02 66
57.04 66
57.06 63
57.08 67
57.1 78
57.12 69
57.14 91
57.16 63
57.18 73
57.2 81
57.22 71
57.24 61
57.26 73
57.28 68
57.3 68
57.32 75
57.34 77
57.36 77
57.38 72
57.4 70
57.42 73
57.44 79
57.46 91
57.48 87
57.5 98
57.52 88
57.54 107
57.56 106
57.58 95
57.6 89
57.62 116
57.64 129
57.66 122
57.68 131
57.7 167
57.72 154
57.74 151
57.76 149
57.78 172
57.8 168
57.82 159
57.84 139
57.86 145
57.88 139
57.9 109
57.92 108
57.94 115
57.96 108
57.98 101
58 95
58.02 103
58.04 96
58.06 97
58.08 89
58.1 106
58.12 101
58.14 82
58.16 101
58.18 103
58.2 104
58.22 88
58.24 102
58.26 128
58.28 117
58.3 133
58.32 144
58.34 111
58.36 128
58.38 141
58.4 131
58.42 119
58.44 157
58.46 159
58.48 180
58.5 168
58.52 208
58.54 185
58.56 217
58.58 195
58.6 200
58.62 197
58.64 212
58.66 233
58.68 230
58.7 218
58.72 234
58.74 274
58.76 281
58.78 396
58.8 493
58.82 496
58.84 631
58.86 684
58.88 798
58.9 770
58.92 714
58.94 636
58.96 566
58.98 521
59 464
59.02 523
59.04 431
59.06 332
59.08 269
59.1 210
59.12 179
59.14 152
59.16 135
59.18 130
59.2 115
59.22 110
59.24 110
59.26 92
59.28 89
59.3 137
59.32 134
59.34 138
59.36 142
59.38 170
59.4 198
59.42 204
59.44 241
59.46 236
59.48 258
59.5 246
59.52 237
59.54 292
59.56 245
59.58 251
59.6 285
59.62 218
59.64 212
59.66 226
59.68 211
59.7 183
59.72 157
59.74 138
59.76 146
59.78 126
59.8 129
59.82 102
59.84 97
59.86 95
59.88 96
59.9 110
59.92 79
59.94 86
59.96 98
59.98 101
60 78
60.02 109
60.04 98
60.06 121
60.08 113
60.1 118
60.12 136
60.14 150
60.16 162
60.18 157
60.2 170
60.22 167
60.24 147
60.26 175
60.28 159
60.3 146
60.32 167
60.34 165
60.36 146
60.38 106
60.4 121
60.42 128
60.44 110
60.46 113
60.48 105
60.5 71
60.52 98
60.54 83
60.56 83
60.58 79
60.6 71
60.62 74
60.64 60
60.66 64
60.68 71
60.7 70
60.72 62
60.74 81
60.76 62
60.78 69
60.8 77
60.82 75
60.84 78
60.86 73
60.88 58
60.9 66
60.92 73
60.94 70
60.96 51
60.98 75
61 54
61.02 59
61.04 67
61.06 52
61.08 78
61.1 46
61.12 48
61.14 62
61.16 55
61.18 65
61.2 74
61.22 79
61.24 86
61.26 71
61.28 86
61.3 80
61.32 93
61.34 85
61.36 84
61.38 76
61.4 89
61.42 91
61.44 86
61.46 91
61.48 105
61.5 90
61.52 79
61.54 84
61.56 93
61.58 81
61.6 69
61.62 100
61.64 86
61.66 95
61.68 79
61.7 92
61.72 86
61.74 90
61.76 101
61.78 69
61.8 93
61.82 96
61.84 78
61.86 83
61.88 89
61.9 104
61.92 105
61.94 102
61.96 91
61.98 96
62 95
62.02 97
62.04 87
62.06 105
62.08 91
62.1 94
62.12 91
62.14 86
62.16 83
62.18 91
62.2 95
62.22 113
62.24 85
62.26 102
62.28 84
62.3 79
62.32 98
62.34 94
62.36 102
62.38 84
62.4 102
62.42 87
62.44 75
62.46 109
62.48 89
62.5 109
62.52 101
62.54 104
62.56 104
62.58 97
62.6 119
62.62 104
62.64 109
62.66 105
62.68 107
62.7 116
62.72 95
62.74 83
62.76 98
62.78 99
62.8 80
62.82 81
62.84 85
62.86 69
62.88 73
62.9 81
62.92 81
62.94 74
62.96 71
62.98 64
63 62
63.02 63
63.04 53
63.06 69
63.08 44
63.1 68
63.12 66
63.14 72
63.16 66
63.18 51
63.2 72
63.22 72
63.24 57
63.26 63
63.28 85
63.3 79
63.32 67
63.34 78
63.36 59
63.38 69
63.4 73
63.42 86
63.44 67
63.46 75
63.48 56
63.5 78
63.52 80
63.54 69
63.56 83
63.58 78
63.6 78
63.62 84
63.64 68
63.66 64
63.68 61
63.7 85
63.72 96
63.74 73
63.76 75
63.78 72
63.8 67
63.82 93
63.84 87
63.86 85
63.88 93
63.9 78
63.92 81
63.94 79
63.96 94
63.98 87
64 81
64.02 83
64.04 88
64.06 94
64.08 90
64.1 78
64.12 86
64.14 88
64.16 88
64.18 101
64.2 80
64.22 98
64.24 87
64.26 82
64.28 79
64.3 86
64.32 74
64.34 87
64.36 101
64.38 100
64.4 80
64.42 88
64.44 76
64.46 106
64.48 107
64.5 111
64.52 149
64.54 155
64.56 181
64.58 222
64.6 267
64.62 253
64.64 249
64.66 251
64.68 267
64.7 233
64.72 210
64.74 209
64.76 183
64.78 197
64.8 181
64.82 135
64.84 143
64.86 133
64.88 121
64.9 118
64.92 108
64.94 80
64.96 95
64.98 91
65 93
65.02 91
65.04 111
65.06 92
65.08 114
65.1 127
65.12 131
65.14 150
65.16 167
65.18 138
65.2 171
65.22 142
65.24 153
65.26 128
65.28 108
65.3 123
65.32 110
65.34 121
65.36 111
65.38 104
65.4 90
65.42 90
65.44 90
65.46 92
65.48 98
65.5 80
65.52 95
65.54 83
65.56 81
65.58 61
65.6 72
65.62 65
65.64 65
65.66 74
65.68 83
65.7 84
65.72 70
65.74 67
65.76 75
65.78 78
65.8 55
65.82 89
65.84 76
65.86 88
65.88 72
65.9 88
65.92 66
65.94 72
65.96 69
65.98 71
66 72
66.02 65
66.04 70
66.06 55
66.08 82
66.1 63
66.12 63
66.14 72
66.16 72
66.18 71
66.2 67
66.22 81
66.24 51
66.26 74
66.28 64
66.3 62
66.32 74
66.34 81
66.36 79
66.38 69
66.4 64
66.42 85
66.44 88
66.46 76
66.48 82
66.5 64
66.52 65
66.54 70
66.56 66
66.58 73
66.6 63
66.62 68
66.64 77
66.66 66
66.68 63
66.7 59
66.72 64
66.74 67
66.76 81
66.78 73
66.8 69
66.82 75
66.84 68
66.86 81
66.88 73
66.9 74
66.92 81
66.94 69
66.96 63
66.98 73
67 67
67.02 59
67.04 82
67.06 70
67.08 53
67.1 75
67.12 75
67.14 65
67.16 57
67.18 63
67.2 61
67.22 39
67.24 66
67.26 53
67.28 58
67.3 58
67.32 53
67.34 63
67.36 56
67.38 53
67.4 62
67.42 57
67.44 65
67.46 69
67.48 67
67.5 79
67.52 71
67.54 75
67.56 85
67.58 74
67.6 81
67.62 82
67.64 76
67.66 78
67.68 74
67.7 78
67.72 92
67.74 82
67.76 82
67.78 68
67.8 80
67.82 95
67.84 82
67.86 98
67.88 102
67.9 92
67.92 112
67.94 88
67.96 103
67.98 108
68 116
68.02 92
68.04 93
68.06 105
68.08 85
68.1 94
68.12 111
68.14 82
68.16 89
68.18 104
68.2 82
68.22 71
68.24 77
68.26 90
68.28 86
68.3 79
68.32 89
68.34 88
68.36 84
68.38 74
68.4 75
68.42 81
68.44 80
68.46 67
68.48 89
68.5 89
68.52 79
68.54 85
68.56 65
68.58 70
68.6 72
68.62 73
68.64 78
68.66 70
68.68 73
68.7 78
68.72 64
68.74 71
68.76 73
68.78 55
68.8 56
68.82 76
68.84 65
68.86 72
68.88 53
68.9 64
68.92 86
68.94 58
68.96 73
68.98 77
69 52
69.02 79
69.04 76
69.06 65
69.08 72
69.1 68
69.12 80
69.14 71
69.16 76
69.18 90
69.2 83
69.22 93
69.24 96
69.26 103
69.28 95
69.3 119
69.32 90
69.34 120
69.36 97
69.38 114
69.4 99
69.42 103
69.44 78
69.46 104
69.48 105
69.5 94
69.52 97
69.54 102
69.56 91
69.58 63
69.6 87
69.62 65
69.64 76
69.66 71
69.68 71
69.7 66
69.72 61
69.74 72
69.76 59
69.78 68
69.8 47
69.82 68
69.84 67
69.86 77
69.88 84
69.9 78
69.92 78
69.94 71
69.96 78
69.98 79
70 69
70.02 81
70.04 85
70.06 78
70.08 71
70.1 58
70.12 68
70.14 100
70.16 80
70.18 69
70.2 70
70.22 83
70.24 84
70.26 94
70.28 73
70.3 84
70.32 61
70.34 71
70.36 84
70.38 78
70.4 86
70.42 93
70.44 79
70.46 88
70.48 74
70.5 80
70.52 73
70.54 77
70.56 97
70.58 88
70.6 98
70.62 74
70.64 102
70.66 123
70.68 103
70.7 147
70.72 143
70.74 206
70.76 192
70.78 268
70.8 345
70.82 400
70.84 455
70.86 505
70.88 496
70.9 477
70.92 434
70.94 407
70.96 381
70.98 314
71 322
71.02 348
71.04 303
71.06 300
71.08 289
71.1 228
71.12 194
71.14 159
71.16 123
71.18 129
71.2 110
71.22 120
71.24 114
71.26 136
71.28 121
71.3 95
71.32 102
71.34 86
71.36 96
71.38 102
71.4 89
71.42 80
71.44 95
71.46 92
71.48 95
71.5 74
71.52 91
71.54 82
71.56 82
71.58 81
71.6 83
71.62 78
71.64 87
71.66 76
71.68 72
71.7 78
71.72 83
71.74 74
71.76 87
71.78 80
71.8 86
71.82 75
71.84 66
71.86 70
71.88 91
71.9 92
71.92 68
71.94 70
71.96 71
71.98 78
72 82
72.02 78
72.04 74
72.06 69
72.08 65
72.1 79
72.12 69
72.14 72
72.16 69
72.18 68
72.2 71
72.22 66
72.24 83
72.26 72
72.28 78
72.3 60
72.32 79
72.34 78
72.36 86
72.38 76
72.4 69
72.42 74
72.44 88
72.46 94
72.48 74
72.5 85
72.52 81
72.54 89
72.56 92
72.58 81
72.6 99
72.62 87
72.64 72
72.66 89
72.68 76
72.7 98
72.72 80
72.74 93
72.76 96
72.78 105
72.8 112
72.82 114
72.84 92
72.86 87
72.88 100
72.9 102
72.92 71
72.94 121
72.96 107
72.98 108
73 114
73.02 110
73.04 126
73.06 117
73.08 120
73.1 110
73.12 130
73.14 123
73.16 118
73.18 119
73.2 101
73.22 129
73.24 111
73.26 103
73.28 133
73.3 125
73.32 98
73.34 121
73.36 115
73.38 105
73.4 121
73.42 110
73.44 130
73.46 108
73.48 106
73.5 93
73.52 111
73.54 108
73.56 95
73.58 107
73.6 105
73.62 101
73.64 93
73.66 84
73.68 80
73.7 98
73.72 89
73.74 70
73.76 91
73.78 92
73.8 90
73.82 100
73.84 87
73.86 90
73.88 77
73.9 86
73.92 88
73.94 78
73.96 93
73.98 70
74 75
74.02 76
74.04 72
74.06 82
74.08 65
74.1 70
74.12 76
74.14 62
74.16 60
74.18 66
74.2 88
74.22 63
74.24 90
74.26 70
74.28 74
74.3 63
74.32 77
74.34 88
74.36 78
74.38 75
74.4 85
74.42 66
74.44 66
74.46 77
74.48 71
74.5 94
74.52 69
74.54 63
74.56 76
74.58 88
74.6 64
74.62 87
74.64 66
74.66 70
74.68 78
74.7 77
74.72 63
74.74 76
74.76 82
74.78 85
74.8 96
74.82 75
74.84 69
74.86 70
74.88 93
74.9 87
74.92 78
74.94 82
74.96 81
74.98 90
75 83
