2.00000 2230.000
2.02000 2012.000
2.04000 1950.000
2.06000 1828.000
2.08000 1715.000
2.10000 1603.000
2.12000 1538.000
2.14000 1528.000
2.16000 1394.000
2.18000 1348.000
2.20000 1297.000
2.22000 1289.000
2.24000 1325.000
2.26000 1281.000
2.28000 1310.000
2.30000 1317.000
2.32000 1296.000
2.34000 1266.000
2.36000 1188.000
2.38000 1190.000
2.40000 1161.000
2.42000 1144.000
2.44000 1151.000
2.46000 1134.000
2.48000 1118.000
2.50000 1120.000
2.52000 1101.000
2.54000 1042.000
2.56000 1070.000
2.58000 1017.000
2.60000 1027.000
2.62000 1064.000
2.64000 1034.000
2.66000 1041.000
2.68000 1052.000
2.70000 973.000
2.72000 995.000
2.74000 1046.000
2.76000 1005.000
2.78000 958.000
2.80000 991.000
2.82000 911.000
2.84000 941.000
2.86000 891.000
2.88000 863.000
2.90000 949.000
2.92000 860.000
2.94000 904.000
2.96000 853.000
2.98000 913.000
3.00000 831.000
3.02000 873.000
3.04000 879.000
3.06000 819.000
3.08000 816.000
3.10000 846.000
3.12000 870.000
3.14000 763.000
3.16000 813.000
3.18000 791.000
3.20000 818.000
3.22000 838.000
3.24000 798.000
3.26000 779.000
3.28000 815.000
3.30000 782.000
3.32000 731.000
3.34000 770.000
3.36000 759.000
3.38000 758.000
3.40000 727.000
3.42000 757.000
3.44000 715.000
3.46000 736.000
3.48000 695.000
3.50000 674.000
3.52000 723.000
3.54000 698.000
3.56000 732.000
3.58000 694.000
3.60000 680.000
3.62000 697.000
3.64000 724.000
3.66000 680.000
3.68000 632.000
3.70000 711.000
3.72000 627.000
3.74000 675.000
3.76000 684.000
3.78000 625.000
3.80000 650.000
3.82000 658.000
3.84000 643.000
3.86000 677.000
3.88000 613.000
3.90000 661.000
3.92000 602.000
3.94000 643.000
3.96000 624.000
3.98000 606.000
4.00000 635.000
4.02000 613.000
4.04000 627.000
4.06000 626.000
4.08000 622.000
4.10000 575.000
4.12000 592.000
4.14000 564.000
4.16000 619.000
4.18000 604.000
4.20000 601.000
4.22000 596.000
4.24000 594.000
4.26000 576.000
4.28000 549.000
4.30000 540.000
4.32000 617.000
4.34000 567.000
4.36000 547.000
4.38000 553.000
4.40000 568.000
4.42000 575.000
4.44000 568.000
4.46000 561.000
4.48000 507.000
4.50000 542.000
4.52000 551.000
4.54000 541.000
4.56000 566.000
4.58000 523.000
4.60000 524.000
4.62000 543.000
4.64000 484.000
4.66000 517.000
4.68000 542.000
4.70000 535.000
4.72000 519.000
4.74000 522.000
4.76000 512.000
4.78000 539.000
4.80000 530.000
4.82000 484.000
4.84000 476.000
4.86000 470.000
4.88000 497.000
4.90000 497.000
4.92000 475.000
4.94000 497.000
4.96000 487.000
4.98000 501.000
5.00000 497.000
5.02000 489.000
5.04000 471.000
5.06000 522.000
5.08000 497.000
5.10000 470.000
5.12000 533.000
5.14000 446.000
5.16000 442.000
5.18000 451.000
5.20000 516.000
5.22000 429.000
5.24000 512.000
5.26000 446.000
5.28000 498.000
5.30000 445.000
5.32000 463.000
5.34000 433.000
5.36000 416.000
5.38000 424.000
5.40000 423.000
5.42000 412.000
5.44000 475.000
5.46000 433.000
5.48000 478.000
5.50000 429.000
5.52000 462.000
5.54000 435.000
5.56000 439.000
5.58000 470.000
5.60000 442.000
5.62000 438.000
5.64000 439.000
5.66000 420.000
5.68000 446.000
5.70000 416.000
5.72000 451.000
5.74000 450.000
5.76000 428.000
5.78000 444.000
5.80000 372.000
5.82000 431.000
5.84000 431.000
5.86000 416.000
5.88000 446.000
5.90000 376.000
5.92000 458.000
5.94000 399.000
5.96000 433.000
5.98000 398.000
6.00000 410.000
6.02000 461.000
6.04000 393.000
6.06000 418.000
6.08000 413.000
6.10000 378.000
6.12000 438.000
6.14000 413.000
6.16000 400.000
6.18000 420.000
6.20000 407.000
6.22000 392.000
6.24000 386.000
6.26000 385.000
6.28000 396.000
6.30000 392.000
6.32000 392.000
6.34000 358.000
6.36000 406.000
6.38000 388.000
6.40000 368.000
6.42000 361.000
6.44000 380.000
6.46000 393.000
6.48000 389.000
6.50000 387.000
6.52000 365.000
6.54000 384.000
6.56000 330.000
6.58000 384.000
6.60000 346.000
6.62000 353.000
6.64000 365.000
6.66000 338.000
6.68000 369.000
6.70000 348.000
6.72000 375.000
6.74000 361.000
6.76000 375.000
6.78000 382.000
6.80000 355.000
6.82000 336.000
6.84000 378.000
6.86000 389.000
6.88000 387.000
6.90000 355.000
6.92000 362.000
6.94000 342.000
6.96000 350.000
6.98000 357.000
7.00000 329.000
7.02000 369.000
7.04000 326.000
7.06000 367.000
7.08000 390.000
7.10000 332.000
7.12000 337.000
7.14000 348.000
7.16000 349.000
7.18000 350.000
7.20000 325.000
7.22000 357.000
7.24000 322.000
7.26000 352.000
7.28000 338.000
7.30000 366.000
7.32000 319.000
7.34000 339.000
7.36000 333.000
7.38000 334.000
7.40000 332.000
7.42000 355.000
7.44000 343.000
7.46000 297.000
7.48000 332.000
7.50000 351.000
7.52000 365.000
7.54000 333.000
7.56000 347.000
7.58000 353.000
7.60000 334.000
7.62000 298.000
7.64000 348.000
7.66000 347.000
7.68000 340.000
7.70000 314.000
7.72000 306.000
7.74000 338.000
7.76000 311.000
7.78000 332.000
7.80000 341.000
7.82000 286.000
7.84000 303.000
7.86000 313.000
7.88000 301.000
7.90000 322.000
7.92000 325.000
7.94000 336.000
7.96000 308.000
7.98000 338.000
8.00000 321.000
8.02000 293.000
8.04000 328.000
8.06000 321.000
8.08000 280.000
8.10000 273.000
8.12000 322.000
8.14000 304.000
8.16000 313.000
8.18000 334.000
8.20000 306.000
8.22000 322.000
8.24000 355.000
8.26000 340.000
8.28000 312.000
8.30000 303.000
8.32000 275.000
8.34000 326.000
8.36000 303.000
8.38000 311.000
8.40000 296.000
8.42000 339.000
8.44000 306.000
8.46000 301.000
8.48000 301.000
8.50000 290.000
8.52000 307.000
8.54000 302.000
8.56000 287.000
8.58000 293.000
8.60000 317.000
8.62000 326.000
8.64000 284.000
8.66000 298.000
8.68000 321.000
8.70000 296.000
8.72000 271.000
8.74000 259.000
8.76000 289.000
8.78000 313.000
8.80000 284.000
8.82000 266.000
8.84000 284.000
8.86000 276.000
8.88000 288.000
8.90000 294.000
8.92000 319.000
8.94000 276.000
8.96000 284.000
8.98000 304.000
9.00000 310.000
9.02000 295.000
9.04000 308.000
9.06000 295.000
9.08000 282.000
9.10000 285.000
9.12000 309.000
9.14000 266.000
9.16000 298.000
9.18000 310.000
9.20000 298.000
9.22000 292.000
9.24000 314.000
9.26000 283.000
9.28000 296.000
9.30000 299.000
9.32000 275.000
9.34000 297.000
9.36000 298.000
9.38000 295.000
9.40000 269.000
9.42000 300.000
9.44000 335.000
9.46000 297.000
9.48000 287.000
9.50000 283.000
9.52000 304.000
9.54000 292.000
9.56000 254.000
9.58000 286.000
9.60000 268.000
9.62000 290.000
9.64000 276.000
9.66000 257.000
9.68000 278.000
9.70000 278.000
9.72000 341.000
9.74000 267.000
9.76000 287.000
9.78000 294.000
9.80000 287.000
9.82000 252.000
9.84000 272.000
9.86000 302.000
9.88000 273.000
9.90000 249.000
9.92000 283.000
9.94000 275.000
9.96000 250.000
9.98000 296.000
10.00000 259.000
10.02000 277.000
10.04000 268.000
10.06000 284.000
10.08000 230.000
10.10000 251.000
10.12000 262.000
10.14000 283.000
10.16000 317.000
10.18000 287.000
10.20000 286.000
10.22000 277.000
10.24000 298.000
10.26000 269.000
10.28000 260.000
10.30000 255.000
10.32000 292.000
10.34000 285.000
10.36000 259.000
10.38000 286.000
10.40000 298.000
10.42000 286.000
10.44000 272.000
10.46000 283.000
10.48000 272.000
10.50000 276.000
10.52000 252.000
10.54000 253.000
10.56000 257.000
10.58000 250.000
10.60000 263.000
10.62000 279.000
10.64000 247.000
10.66000 283.000
10.68000 278.000
10.70000 277.000
10.72000 296.000
10.74000 275.000
10.76000 290.000
10.78000 264.000
10.80000 267.000
10.82000 271.000
10.84000 270.000
10.86000 263.000
10.88000 257.000
10.90000 266.000
10.92000 275.000
10.94000 262.000
10.96000 279.000
10.98000 276.000
11.00000 262.000
11.02000 261.000
11.04000 246.000
11.06000 246.000
11.08000 283.000
11.10000 250.000
11.12000 266.000
11.14000 251.000
11.16000 241.000
11.18000 294.000
11.20000 275.000
11.22000 270.000
11.24000 260.000
11.26000 253.000
11.28000 273.000
11.30000 256.000
11.32000 245.000
11.34000 262.000
11.36000 248.000
11.38000 227.000
11.40000 241.000
11.42000 254.000
11.44000 259.000
11.46000 239.000
11.48000 287.000
11.50000 289.000
11.52000 234.000
11.54000 263.000
11.56000 276.000
11.58000 259.000
11.60000 257.000
11.62000 265.000
11.64000 283.000
11.66000 278.000
11.68000 251.000
11.70000 269.000
11.72000 245.000
11.74000 247.000
11.76000 225.000
11.78000 223.000
11.80000 268.000
11.82000 241.000
11.84000 260.000
11.86000 246.000
11.88000 252.000
11.90000 267.000
11.92000 241.000
11.94000 264.000
11.96000 267.000
11.98000 242.000
12.00000 265.000
12.02000 264.000
12.04000 256.000
12.06000 255.000
12.08000 289.000
12.10000 264.000
12.12000 271.000
12.14000 240.000
12.16000 236.000
12.18000 244.000
12.20000 289.000
12.22000 239.000
12.24000 250.000
12.26000 258.000
12.28000 270.000
12.30000 252.000
12.32000 265.000
12.34000 263.000
12.36000 257.000
12.38000 272.000
12.40000 258.000
12.42000 248.000
12.44000 244.000
12.46000 239.000
12.48000 246.000
12.50000 247.000
12.52000 257.000
12.54000 274.000
12.56000 241.000
12.58000 258.000
12.60000 245.000
12.62000 280.000
12.64000 263.000
12.66000 251.000
12.68000 244.000
12.70000 229.000
12.72000 238.000
12.74000 264.000
12.76000 257.000
12.78000 240.000
12.80000 242.000
12.82000 266.000
12.84000 240.000
12.86000 249.000
12.88000 246.000
12.90000 266.000
12.92000 229.000
12.94000 262.000
12.96000 272.000
12.98000 244.000
13.00000 252.000
13.02000 242.000
13.04000 241.000
13.06000 256.000
13.08000 269.000
13.10000 252.000
13.12000 275.000
13.14000 282.000
13.16000 265.000
13.18000 259.000
13.20000 276.000
13.22000 258.000
13.24000 258.000
13.26000 240.000
13.28000 250.000
13.30000 277.000
13.32000 273.000
13.34000 255.000
13.36000 259.000
13.38000 272.000
13.40000 264.000
13.42000 261.000
13.44000 231.000
13.46000 244.000
13.48000 243.000
13.50000 255.000
13.52000 275.000
13.54000 248.000
13.56000 255.000
13.58000 253.000
13.60000 248.000
13.62000 269.000
13.64000 237.000
13.66000 260.000
13.68000 285.000
13.70000 259.000
13.72000 256.000
13.74000 275.000
13.76000 278.000
13.78000 249.000
13.80000 277.000
13.82000 236.000
13.84000 249.000
13.86000 252.000
13.88000 266.000
13.90000 260.000
13.92000 249.000
13.94000 245.000
13.96000 237.000
13.98000 273.000
14.00000 246.000
14.02000 259.000
14.04000 259.000
14.06000 252.000
14.08000 258.000
14.10000 226.000
14.12000 278.000
14.14000 242.000
14.16000 309.000
14.18000 279.000
14.20000 283.000
14.22000 244.000
14.24000 244.000
14.26000 246.000
14.28000 228.000
14.30000 258.000
14.32000 294.000
14.34000 261.000
14.36000 284.000
14.38000 276.000
14.40000 240.000
14.42000 259.000
14.44000 261.000
14.46000 245.000
14.48000 282.000
14.50000 263.000
14.52000 258.000
14.54000 241.000
14.56000 264.000
14.58000 279.000
14.60000 257.000
14.62000 260.000
14.64000 276.000
14.66000 262.000
14.68000 280.000
14.70000 242.000
14.72000 240.000
14.74000 237.000
14.76000 263.000
14.78000 282.000
14.80000 261.000
14.82000 269.000
14.84000 262.000
14.86000 249.000
14.88000 262.000
14.90000 267.000
14.92000 264.000
14.94000 261.000
14.96000 252.000
14.98000 258.000
15.00000 277.000
15.02000 274.000
15.04000 268.000
15.06000 219.000
15.08000 246.000
15.10000 249.000
15.12000 289.000
15.14000 261.000
15.16000 270.000
15.18000 275.000
15.20000 239.000
15.22000 274.000
15.24000 248.000
15.26000 300.000
15.28000 251.000
15.30000 265.000
15.32000 287.000
15.34000 282.000
15.36000 245.000
15.38000 269.000
15.40000 283.000
15.42000 299.000
15.44000 299.000
15.46000 308.000
15.48000 276.000
15.50000 286.000
15.52000 325.000
15.54000 293.000
15.56000 264.000
15.58000 292.000
15.60000 288.000
15.62000 281.000
15.64000 300.000
15.66000 275.000
15.68000 314.000
15.70000 304.000
15.72000 322.000
15.74000 327.000
15.76000 334.000
15.78000 332.000
15.80000 355.000
15.82000 320.000
15.84000 348.000
15.86000 330.000
15.88000 336.000
15.90000 282.000
15.92000 329.000
15.94000 313.000
15.96000 273.000
15.98000 358.000
16.00000 362.000
16.02000 380.000
16.04000 405.000
16.06000 352.000
16.08000 348.000
16.10000 369.000
16.12000 342.000
16.14000 326.000
16.16000 302.000
16.18000 286.000
16.20000 321.000
16.22000 319.000
16.24000 307.000
16.26000 316.000
16.28000 292.000
16.30000 316.000
16.32000 283.000
16.34000 286.000
16.36000 299.000
16.38000 278.000
16.40000 289.000
16.42000 302.000
16.44000 295.000
16.46000 289.000
16.48000 263.000
16.50000 280.000
16.52000 286.000
16.54000 295.000
16.56000 251.000
16.58000 259.000
16.60000 287.000
16.62000 261.000
16.64000 276.000
16.66000 254.000
16.68000 298.000
16.70000 266.000
16.72000 302.000
16.74000 274.000
16.76000 261.000
16.78000 293.000
16.80000 260.000
16.82000 282.000
16.84000 299.000
16.86000 277.000
16.88000 279.000
16.90000 305.000
16.92000 277.000
16.94000 267.000
16.96000 262.000
16.98000 305.000
17.00000 315.000
17.02000 271.000
17.04000 277.000
17.06000 306.000
17.08000 274.000
17.10000 265.000
17.12000 251.000
17.14000 297.000
17.16000 286.000
17.18000 267.000
17.20000 300.000
17.22000 249.000
17.24000 279.000
17.26000 317.000
17.28000 305.000
17.30000 348.000
17.32000 304.000
17.34000 287.000
17.36000 347.000
17.38000 342.000
17.40000 350.000
17.42000 368.000
17.44000 394.000
17.46000 386.000
17.48000 333.000
17.50000 381.000
17.52000 380.000
17.54000 351.000
17.56000 354.000
17.58000 332.000
17.60000 294.000
17.62000 286.000
17.64000 321.000
17.66000 310.000
17.68000 296.000
17.70000 285.000
17.72000 312.000
17.74000 316.000
17.76000 279.000
17.78000 293.000
17.80000 289.000
17.82000 276.000
17.84000 305.000
17.86000 319.000
17.88000 278.000
17.90000 292.000
17.92000 297.000
17.94000 293.000
17.96000 284.000
17.98000 298.000
18.00000 309.000
18.02000 299.000
18.04000 291.000
18.06000 300.000
18.08000 325.000
18.10000 284.000
18.12000 269.000
18.14000 314.000
18.16000 297.000
18.18000 298.000
18.20000 290.000
18.22000 290.000
18.24000 308.000
18.26000 299.000
18.28000 324.000
18.30000 329.000
18.32000 340.000
18.34000 325.000
18.36000 320.000
18.38000 315.000
18.40000 329.000
18.42000 308.000
18.44000 289.000
18.46000 289.000
18.48000 316.000
18.50000 290.000
18.52000 301.000
18.54000 299.000
18.56000 287.000
18.58000 323.000
18.60000 297.000
18.62000 303.000
18.64000 298.000
18.66000 305.000
18.68000 315.000
18.70000 307.000
18.72000 320.000
18.74000 310.000
18.76000 326.000
18.78000 310.000
18.80000 317.000
18.82000 326.000
18.84000 302.000
18.86000 329.000
18.88000 321.000
18.90000 325.000
18.92000 289.000
18.94000 305.000
18.96000 326.000
18.98000 288.000
19.00000 314.000
19.02000 331.000
19.04000 315.000
19.06000 332.000
19.08000 315.000
19.10000 300.000
19.12000 346.000
19.14000 321.000
19.16000 335.000
19.18000 322.000
19.20000 283.000
19.22000 318.000
19.24000 308.000
19.26000 332.000
19.28000 327.000
19.30000 299.000
19.32000 352.000
19.34000 322.000
19.36000 317.000
19.38000 302.000
19.40000 307.000
19.42000 286.000
19.44000 331.000
19.46000 306.000
19.48000 330.000
19.50000 361.000
19.52000 321.000
19.54000 293.000
19.56000 320.000
19.58000 316.000
19.60000 282.000
19.62000 300.000
19.64000 328.000
19.66000 353.000
19.68000 315.000
19.70000 350.000
19.72000 308.000
19.74000 333.000
19.76000 324.000
19.78000 314.000
19.80000 324.000
19.82000 308.000
19.84000 310.000
19.86000 308.000
19.88000 335.000
19.90000 338.000
19.92000 353.000
19.94000 319.000
19.96000 360.000
19.98000 335.000
20.00000 320.000
20.02000 323.000
20.04000 315.000
20.06000 348.000
20.08000 341.000
20.10000 350.000
20.12000 331.000
20.14000 336.000
20.16000 351.000
20.18000 342.000
20.20000 341.000
20.22000 348.000
20.24000 341.000
20.26000 330.000
20.28000 337.000
20.30000 316.000
20.32000 323.000
20.34000 316.000
20.36000 346.000
20.38000 314.000
20.40000 348.000
20.42000 339.000
20.44000 375.000
20.46000 362.000
20.48000 352.000
20.50000 360.000
20.52000 350.000
20.54000 334.000
20.56000 342.000
20.58000 309.000
20.60000 389.000
20.62000 344.000
20.64000 347.000
20.66000 318.000
20.68000 347.000
20.70000 328.000
20.72000 343.000
20.74000 345.000
20.76000 324.000
20.78000 360.000
20.80000 358.000
20.82000 364.000
20.84000 347.000
20.86000 383.000
20.88000 344.000
20.90000 358.000
20.92000 349.000
20.94000 367.000
20.96000 386.000
20.98000 345.000
21.00000 341.000
21.02000 347.000
21.04000 332.000
21.06000 352.000
21.08000 353.000
21.10000 345.000
21.12000 348.000
21.14000 354.000
21.16000 318.000
21.18000 355.000
21.20000 347.000
21.22000 386.000
21.24000 349.000
21.26000 400.000
21.28000 391.000
21.30000 368.000
21.32000 410.000
21.34000 356.000
21.36000 379.000
21.38000 365.000
21.40000 372.000
21.42000 361.000
21.44000 347.000
21.46000 347.000
21.48000 371.000
21.50000 357.000
21.52000 371.000
21.54000 362.000
21.56000 396.000
21.58000 367.000
21.60000 341.000
21.62000 397.000
21.64000 391.000
21.66000 356.000
21.68000 377.000
21.70000 398.000
21.72000 414.000
21.74000 406.000
21.76000 370.000
21.78000 406.000
21.80000 380.000
21.82000 377.000
21.84000 364.000
21.86000 390.000
21.88000 384.000
21.90000 380.000
21.92000 385.000
21.94000 383.000
21.96000 374.000
21.98000 373.000
22.00000 380.000
22.02000 392.000
22.04000 374.000
22.06000 373.000
22.08000 365.000
22.10000 372.000
22.12000 399.000
22.14000 362.000
22.16000 377.000
22.18000 392.000
22.20000 378.000
22.22000 373.000
22.24000 362.000
22.26000 400.000
22.28000 370.000
22.30000 412.000
22.32000 377.000
22.34000 363.000
22.36000 397.000
22.38000 371.000
22.40000 373.000
22.42000 337.000
22.44000 370.000
22.46000 384.000
22.48000 402.000
22.50000 379.000
22.52000 409.000
22.54000 375.000
22.56000 379.000
22.58000 338.000
22.60000 344.000
22.62000 353.000
22.64000 344.000
22.66000 376.000
22.68000 390.000
22.70000 406.000
22.72000 384.000
22.74000 379.000
22.76000 431.000
22.78000 420.000
22.80000 406.000
22.82000 386.000
22.84000 403.000
22.86000 416.000
22.88000 423.000
22.90000 412.000
22.92000 403.000
22.94000 417.000
22.96000 401.000
22.98000 394.000
23.00000 389.000
23.02000 408.000
23.04000 369.000
23.06000 406.000
23.08000 398.000
23.10000 430.000
23.12000 414.000
23.14000 395.000
23.16000 411.000
23.18000 417.000
23.20000 391.000
23.22000 381.000
23.24000 393.000
23.26000 388.000
23.28000 361.000
23.30000 382.000
23.32000 389.000
23.34000 410.000
23.36000 372.000
23.38000 386.000
23.40000 405.000
23.42000 388.000
23.44000 416.000
23.46000 369.000
23.48000 377.000
23.50000 384.000
23.52000 407.000
23.54000 385.000
23.56000 380.000
23.58000 383.000
23.60000 408.000
23.62000 395.000
23.64000 393.000
23.66000 381.000
23.68000 383.000
23.70000 393.000
23.72000 367.000
23.74000 382.000
23.76000 430.000
23.78000 369.000
23.80000 401.000
23.82000 408.000
23.84000 381.000
23.86000 429.000
23.88000 414.000
23.90000 438.000
23.92000 385.000
23.94000 449.000
23.96000 454.000
23.98000 426.000
24.00000 494.000
24.02000 500.000
24.04000 583.000
24.06000 625.000
24.08000 732.000
24.10000 823.000
24.12000 951.000
24.14000 1164.000
24.16000 1386.000
24.18000 1490.000
24.20000 1757.000
24.22000 1709.000
24.24000 1729.000
24.26000 1568.000
24.28000 1408.000
24.30000 1219.000
24.32000 986.000
24.34000 896.000
24.36000 854.000
24.38000 779.000
24.40000 828.000
24.42000 775.000
24.44000 794.000
24.46000 705.000
24.48000 679.000
24.50000 585.000
24.52000 518.000
24.54000 475.000
24.56000 414.000
24.58000 420.000
24.60000 426.000
24.62000 403.000
24.64000 403.000
24.66000 405.000
24.68000 369.000
24.70000 394.000
24.72000 398.000
24.74000 369.000
24.76000 378.000
24.78000 370.000
24.80000 373.000
24.82000 384.000
24.84000 388.000
24.86000 366.000
24.88000 397.000
24.90000 374.000
24.92000 402.000
24.94000 384.000
24.96000 390.000
24.98000 361.000
25.00000 358.000
25.02000 363.000
25.04000 348.000
25.06000 365.000
25.08000 388.000
25.10000 395.000
25.12000 378.000
25.14000 402.000
25.16000 360.000
25.18000 369.000
25.20000 372.000
25.22000 365.000
25.24000 387.000
25.26000 409.000
25.28000 351.000
25.30000 390.000
25.32000 381.000
25.34000 410.000
25.36000 403.000
25.38000 420.000
25.40000 464.000
25.42000 522.000
25.44000 526.000
25.46000 659.000
25.48000 668.000
25.50000 729.000
25.52000 873.000
25.54000 868.000
25.56000 908.000
25.58000 905.000
25.60000 896.000
25.62000 774.000
25.64000 717.000
25.66000 581.000
25.68000 532.000
25.70000 483.000
25.72000 474.000
25.74000 371.000
25.76000 400.000
25.78000 316.000
25.80000 360.000
25.82000 343.000
25.84000 401.000
25.86000 350.000
25.88000 373.000
25.90000 377.000
25.92000 360.000
25.94000 339.000
25.96000 358.000
25.98000 380.000
26.00000 400.000
26.02000 353.000
26.04000 415.000
26.06000 438.000
26.08000 433.000
26.10000 401.000
26.12000 425.000
26.14000 448.000
26.16000 450.000
26.18000 455.000
26.20000 443.000
26.22000 423.000
26.24000 380.000
26.26000 427.000
26.28000 369.000
26.30000 328.000
26.32000 362.000
26.34000 347.000
26.36000 398.000
26.38000 340.000
26.40000 361.000
26.42000 351.000
26.44000 304.000
26.46000 347.000
26.48000 339.000
26.50000 353.000
26.52000 399.000
26.54000 383.000
26.56000 370.000
26.58000 380.000
26.60000 379.000
26.62000 388.000
26.64000 378.000
26.66000 371.000
26.68000 403.000
26.70000 412.000
26.72000 408.000
26.74000 418.000
26.76000 458.000
26.78000 427.000
26.80000 410.000
26.82000 393.000
26.84000 406.000
26.86000 394.000
26.88000 366.000
26.90000 368.000
26.92000 389.000
26.94000 360.000
26.96000 354.000
26.98000 339.000
27.00000 350.000
27.02000 336.000
27.04000 322.000
27.06000 341.000
27.08000 352.000
27.10000 365.000
27.12000 342.000
27.14000 394.000
27.16000 390.000
27.18000 382.000
27.20000 419.000
27.22000 493.000
27.24000 497.000
27.26000 542.000
27.28000 548.000
27.30000 607.000
27.32000 759.000
27.34000 845.000
27.36000 844.000
27.38000 891.000
27.40000 878.000
27.42000 878.000
27.44000 813.000
27.46000 720.000
27.48000 654.000
27.50000 554.000
27.52000 513.000
27.54000 468.000
27.56000 396.000
27.58000 410.000
27.60000 399.000
27.62000 369.000
27.64000 373.000
27.66000 367.000
27.68000 361.000
27.70000 367.000
27.72000 391.000
27.74000 417.000
27.76000 368.000
27.78000 401.000
27.80000 368.000
27.82000 388.000
27.84000 405.000
27.86000 403.000
27.88000 377.000
27.90000 439.000
27.92000 378.000
27.94000 409.000
27.96000 454.000
27.98000 418.000
28.00000 428.000
28.02000 445.000
28.04000 442.000
28.06000 457.000
28.08000 465.000
28.10000 491.000
28.12000 527.000
28.14000 540.000
28.16000 523.000
28.18000 539.000
28.20000 559.000
28.22000 561.000
28.24000 564.000
28.26000 534.000
28.28000 496.000
28.30000 446.000
28.32000 446.000
28.34000 396.000
28.36000 365.000
28.38000 367.000
28.40000 342.000
28.42000 312.000
28.44000 314.000
28.46000 362.000
28.48000 331.000
28.50000 332.000
28.52000 331.000
28.54000 333.000
28.56000 351.000
28.58000 360.000
28.60000 383.000
28.62000 332.000
28.64000 367.000
28.66000 358.000
28.68000 327.000
28.70000 329.000
28.72000 319.000
28.74000 287.000
28.76000 278.000
28.78000 284.000
28.80000 291.000
28.82000 288.000
28.84000 260.000
28.86000 307.000
28.88000 298.000
28.90000 280.000
28.92000 269.000
28.94000 267.000
28.96000 276.000
28.98000 280.000
29.00000 274.000
29.02000 284.000
29.04000 288.000
29.06000 289.000
29.08000 292.000
29.10000 265.000
29.12000 309.000
29.14000 292.000
29.16000 318.000
29.18000 337.000
29.20000 302.000
29.22000 334.000
29.24000 359.000
29.26000 340.000
29.28000 320.000
29.30000 298.000
29.32000 321.000
29.34000 336.000
29.36000 293.000
29.38000 332.000
29.40000 301.000
29.42000 315.000
29.44000 337.000
29.46000 333.000
29.48000 312.000
29.50000 352.000
29.52000 343.000
29.54000 378.000
29.56000 397.000
29.58000 382.000
29.60000 383.000
29.62000 357.000
29.64000 395.000
29.66000 430.000
29.68000 460.000
29.70000 468.000
29.72000 486.000
29.74000 505.000
29.76000 557.000
29.78000 610.000
29.80000 655.000
29.82000 633.000
29.84000 618.000
29.86000 600.000
29.88000 531.000
29.90000 513.000
29.92000 413.000
29.94000 391.000
29.96000 337.000
29.98000 308.000
30.00000 312.000
30.02000 309.000
30.04000 279.000
30.06000 304.000
30.08000 318.000
30.10000 320.000
30.12000 299.000
30.14000 274.000
30.16000 281.000
30.18000 294.000
30.20000 281.000
30.22000 300.000
30.24000 310.000
30.26000 294.000
30.28000 308.000
30.30000 297.000
30.32000 313.000
30.34000 295.000
30.36000 259.000
30.38000 279.000
30.40000 306.000
30.42000 330.000
30.44000 335.000
30.46000 289.000
30.48000 293.000
30.50000 344.000
30.52000 340.000
30.54000 311.000
30.56000 380.000
30.58000 359.000
30.60000 432.000
30.62000 450.000
30.64000 431.000
30.66000 519.000
30.68000 602.000
30.70000 597.000
30.72000 665.000
30.74000 743.000
30.76000 800.000
30.78000 948.000
30.80000 1140.000
30.82000 1373.000
30.84000 1708.000
30.86000 2224.000
30.88000 2817.000
30.90000 3565.000
30.92000 4468.000
30.94000 5324.000
30.96000 6089.000
30.98000 6532.000
31.00000 6486.000
31.02000 5952.000
31.04000 5081.000
31.06000 4011.000
31.08000 3029.000
31.10000 2165.000
31.12000 1592.000
31.14000 1158.000
31.16000 961.000
31.18000 852.000
31.20000 781.000
31.22000 799.000
31.24000 752.000
31.26000 838.000
31.28000 823.000
31.30000 843.000
31.32000 812.000
31.34000 804.000
31.36000 734.000
31.38000 696.000
31.40000 724.000
31.42000 694.000
31.44000 691.000
31.46000 615.000
31.48000 659.000
31.50000 710.000
31.52000 699.000
31.54000 690.000
31.56000 643.000
31.58000 536.000
31.60000 506.000
31.62000 437.000
31.64000 407.000
31.66000 386.000
31.68000 348.000
31.70000 339.000
31.72000 338.000
31.74000 332.000
31.76000 346.000
31.78000 348.000
31.80000 360.000
31.82000 367.000
31.84000 389.000
31.86000 445.000
31.88000 496.000
31.90000 589.000
31.92000 634.000
31.94000 721.000
31.96000 824.000
31.98000 874.000
32.00000 912.000
32.02000 888.000
32.04000 887.000
32.06000 830.000
32.08000 811.000
32.10000 703.000
32.12000 667.000
32.14000 626.000
32.16000 575.000
32.18000 598.000
32.20000 636.000
32.22000 688.000
32.24000 747.000
32.26000 838.000
32.28000 853.000
32.30000 911.000
32.32000 844.000
32.34000 918.000
32.36000 898.000
32.38000 850.000
32.40000 950.000
32.42000 932.000
32.44000 1000.000
32.46000 999.000
32.48000 1141.000
32.50000 1125.000
32.52000 1138.000
32.54000 1043.000
32.56000 1046.000
32.58000 932.000
32.60000 853.000
32.62000 741.000
32.64000 608.000
32.66000 506.000
32.68000 511.000
32.70000 482.000
32.72000 444.000
32.74000 420.000
32.76000 431.000
32.78000 460.000
32.80000 432.000
32.82000 478.000
32.84000 391.000
32.86000 455.000
32.88000 461.000
32.90000 435.000
32.92000 381.000
32.94000 415.000
32.96000 362.000
32.98000 335.000
33.00000 314.000
33.02000 256.000
33.04000 262.000
33.06000 296.000
33.08000 250.000
33.10000 239.000
33.12000 208.000
33.14000 224.000
33.16000 247.000
33.18000 218.000
33.20000 204.000
33.22000 207.000
33.24000 216.000
33.26000 191.000
33.28000 202.000
33.30000 208.000
33.32000 207.000
33.34000 222.000
33.36000 189.000
33.38000 235.000
33.40000 205.000
33.42000 201.000
33.44000 200.000
33.46000 185.000
33.48000 217.000
33.50000 224.000
33.52000 176.000
33.54000 212.000
33.56000 184.000
33.58000 206.000
33.60000 202.000
33.62000 207.000
33.64000 222.000
33.66000 179.000
33.68000 208.000
33.70000 204.000
33.72000 212.000
33.74000 201.000
33.76000 221.000
33.78000 171.000
33.80000 188.000
33.82000 222.000
33.84000 193.000
33.86000 177.000
33.88000 188.000
33.90000 201.000
33.92000 195.000
33.94000 213.000
33.96000 169.000
33.98000 186.000
34.00000 198.000
34.02000 179.000
34.04000 202.000
34.06000 203.000
34.08000 169.000
34.10000 191.000
34.12000 197.000
34.14000 178.000
34.16000 200.000
34.18000 181.000
34.20000 167.000
34.22000 211.000
34.24000 174.000
34.26000 202.000
34.28000 210.000
34.30000 191.000
34.32000 187.000
34.34000 180.000
34.36000 211.000
34.38000 213.000
34.40000 180.000
34.42000 179.000
34.44000 226.000
34.46000 230.000
34.48000 222.000
34.50000 217.000
34.52000 230.000
34.54000 256.000
34.56000 274.000
34.58000 261.000
34.60000 322.000
34.62000 327.000
34.64000 372.000
34.66000 426.000
34.68000 426.000
34.70000 460.000
34.72000 484.000
34.74000 487.000
34.76000 484.000
34.78000 458.000
34.80000 495.000
34.82000 456.000
34.84000 423.000
34.86000 385.000
34.88000 387.000
34.90000 358.000
34.92000 320.000
34.94000 335.000
34.96000 299.000
34.98000 300.000
35.00000 262.000
35.02000 261.000
35.04000 249.000
35.06000 257.000
35.08000 271.000
35.10000 252.000
35.12000 247.000
35.14000 245.000
35.16000 231.000
35.18000 238.000
35.20000 236.000
35.22000 277.000
35.24000 281.000
35.26000 285.000
35.28000 276.000
35.30000 337.000
35.32000 303.000
35.34000 323.000
35.36000 338.000
35.38000 346.000
35.40000 376.000
35.42000 401.000
35.44000 437.000
35.46000 385.000
35.48000 422.000
35.50000 416.000
35.52000 346.000
35.54000 366.000
35.56000 346.000
35.58000 266.000
35.60000 288.000
35.62000 274.000
35.64000 211.000
35.66000 229.000
35.68000 221.000
35.70000 228.000
35.72000 230.000
35.74000 221.000
35.76000 276.000
35.78000 265.000
35.80000 307.000
35.82000 333.000
35.84000 311.000
35.86000 357.000
35.88000 327.000
35.90000 356.000
35.92000 358.000
35.94000 358.000
35.96000 306.000
35.98000 286.000
36.00000 236.000
36.02000 221.000
36.04000 189.000
36.06000 209.000
36.08000 200.000
36.10000 205.000
36.12000 184.000
36.14000 178.000
36.16000 196.000
36.18000 183.000
36.20000 187.000
36.22000 176.000
36.24000 182.000
36.26000 196.000
36.28000 164.000
36.30000 207.000
36.32000 189.000
36.34000 222.000
36.36000 236.000
36.38000 248.000
36.40000 241.000
36.42000 244.000
36.44000 206.000
36.46000 219.000
36.48000 243.000
36.50000 241.000
36.52000 247.000
36.54000 239.000
36.56000 238.000
36.58000 250.000
36.60000 226.000
36.62000 201.000
36.64000 198.000
36.66000 222.000
36.68000 188.000
36.70000 183.000
36.72000 197.000
36.74000 208.000
36.76000 195.000
36.78000 181.000
36.80000 175.000
36.82000 189.000
36.84000 198.000
36.86000 170.000
36.88000 175.000
36.90000 141.000
36.92000 201.000
36.94000 179.000
36.96000 181.000
36.98000 168.000
37.00000 178.000
37.02000 179.000
37.04000 163.000
37.06000 157.000
37.08000 175.000
37.10000 185.000
37.12000 172.000
37.14000 162.000
37.16000 178.000
37.18000 194.000
37.20000 181.000
37.22000 157.000
37.24000 162.000
37.26000 164.000
37.28000 154.000
37.30000 183.000
37.32000 164.000
37.34000 169.000
37.36000 166.000
37.38000 193.000
37.40000 187.000
37.42000 162.000
37.44000 188.000
37.46000 183.000
37.48000 197.000
37.50000 215.000
37.52000 195.000
37.54000 220.000
37.56000 220.000
37.58000 240.000
37.60000 224.000
37.62000 265.000
37.64000 255.000
37.66000 255.000
37.68000 265.000
37.70000 267.000
37.72000 266.000
37.74000 222.000
37.76000 218.000
37.78000 205.000
37.80000 177.000
37.82000 203.000
37.84000 157.000
37.86000 189.000
37.88000 173.000
37.90000 178.000
37.92000 162.000
37.94000 174.000
37.96000 153.000
37.98000 152.000
38.00000 171.000
38.02000 184.000
38.04000 167.000
38.06000 163.000
38.08000 156.000
38.10000 171.000
38.12000 155.000
38.14000 168.000
38.16000 157.000
38.18000 169.000
38.20000 145.000
38.22000 180.000
38.24000 163.000
38.26000 171.000
38.28000 155.000
38.30000 160.000
38.32000 156.000
38.34000 171.000
38.36000 169.000
38.38000 161.000
38.40000 181.000
38.42000 159.000
38.44000 159.000
38.46000 184.000
38.48000 162.000
38.50000 177.000
38.52000 156.000
38.54000 162.000
38.56000 174.000
38.58000 148.000
38.60000 152.000
38.62000 192.000
38.64000 149.000
38.66000 156.000
38.68000 159.000
38.70000 166.000
38.72000 159.000
38.74000 157.000
38.76000 162.000
38.78000 158.000
38.80000 162.000
38.82000 158.000
38.84000 158.000
38.86000 140.000
38.88000 137.000
38.90000 159.000
38.92000 130.000
38.94000 164.000
38.96000 150.000
38.98000 164.000
39.00000 153.000
39.02000 167.000
39.04000 148.000
39.06000 154.000
39.08000 135.000
39.10000 166.000
39.12000 148.000
39.14000 177.000
39.16000 168.000
39.18000 159.000
39.20000 153.000
39.22000 158.000
39.24000 142.000
39.26000 179.000
39.28000 170.000
39.30000 173.000
39.32000 180.000
39.34000 175.000
39.36000 178.000
39.38000 195.000
39.40000 206.000
39.42000 218.000
39.44000 193.000
39.46000 202.000
39.48000 204.000
39.50000 209.000
39.52000 206.000
39.54000 201.000
39.56000 203.000
39.58000 172.000
39.60000 197.000
39.62000 190.000
39.64000 182.000
39.66000 169.000
39.68000 167.000
39.70000 135.000
39.72000 166.000
39.74000 180.000
39.76000 177.000
39.78000 163.000
39.80000 141.000
39.82000 158.000
39.84000 163.000
39.86000 166.000
39.88000 170.000
39.90000 171.000
39.92000 182.000
39.94000 198.000
39.96000 200.000
39.98000 184.000
40.00000 185.000
40.02000 193.000
40.04000 201.000
40.06000 229.000
40.08000 228.000
40.10000 265.000
40.12000 230.000
40.14000 234.000
40.16000 256.000
40.18000 254.000
40.20000 233.000
40.22000 240.000
40.24000 228.000
40.26000 227.000
40.28000 218.000
40.30000 211.000
40.32000 206.000
40.34000 217.000
40.36000 210.000
40.38000 194.000
40.40000 224.000
40.42000 199.000
40.44000 240.000
40.46000 210.000
40.48000 247.000
40.50000 249.000
40.52000 263.000
40.54000 276.000
40.56000 305.000
40.58000 303.000
40.60000 271.000
40.62000 320.000
40.64000 306.000
40.66000 327.000
40.68000 349.000
40.70000 320.000
40.72000 305.000
40.74000 292.000
40.76000 278.000
40.78000 284.000
40.80000 236.000
40.82000 299.000
40.84000 290.000
40.86000 278.000
40.88000 310.000
40.90000 348.000
40.92000 346.000
40.94000 312.000
40.96000 334.000
40.98000 348.000
41.00000 359.000
41.02000 327.000
41.04000 336.000
41.06000 291.000
41.08000 295.000
41.10000 304.000
41.12000 266.000
41.14000 255.000
41.16000 243.000
41.18000 266.000
41.20000 247.000
41.22000 254.000
41.24000 253.000
41.26000 239.000
41.28000 275.000
41.30000 284.000
41.32000 243.000
41.34000 235.000
41.36000 213.000
41.38000 230.000
41.40000 244.000
41.42000 227.000
41.44000 191.000
41.46000 169.000
41.48000 219.000
41.50000 239.000
41.52000 215.000
41.54000 231.000
41.56000 229.000
41.58000 228.000
41.60000 241.000
41.62000 212.000
41.64000 211.000
41.66000 206.000
41.68000 165.000
41.70000 175.000
41.72000 185.000
41.74000 175.000
41.76000 190.000
41.78000 209.000
41.80000 173.000
41.82000 182.000
41.84000 177.000
41.86000 188.000
41.88000 184.000
41.90000 192.000
41.92000 161.000
41.94000 170.000
41.96000 172.000
41.98000 184.000
42.00000 183.000
42.02000 195.000
42.04000 196.000
42.06000 210.000
42.08000 169.000
42.10000 188.000
42.12000 185.000
42.14000 199.000
42.16000 192.000
42.18000 212.000
42.20000 207.000
42.22000 210.000
42.24000 176.000
42.26000 196.000
42.28000 193.000
42.30000 229.000
42.32000 208.000
42.34000 210.000
42.36000 212.000
42.38000 207.000
42.40000 247.000
42.42000 232.000
42.44000 212.000
42.46000 242.000
42.48000 260.000
42.50000 252.000
42.52000 323.000
42.54000 373.000
42.56000 400.000
42.58000 438.000
42.60000 496.000
42.62000 559.000
42.64000 591.000
42.66000 532.000
42.68000 581.000
42.70000 506.000
42.72000 475.000
42.74000 419.000
42.76000 407.000
42.78000 344.000
42.80000 284.000
42.82000 249.000
42.84000 233.000
42.86000 217.000
42.88000 212.000
42.90000 216.000
42.92000 171.000
42.94000 171.000
42.96000 205.000
42.98000 178.000
43.00000 189.000
43.02000 184.000
43.04000 186.000
43.06000 184.000
43.08000 195.000
43.10000 188.000
43.12000 197.000
43.14000 181.000
43.16000 189.000
43.18000 194.000
43.20000 196.000
43.22000 205.000
43.24000 175.000
43.26000 206.000
43.28000 206.000
43.30000 211.000
43.32000 193.000
43.34000 186.000
43.36000 189.000
43.38000 214.000
43.40000 199.000
43.42000 201.000
43.44000 197.000
43.46000 225.000
43.48000 186.000
43.50000 203.000
43.52000 186.000
43.54000 181.000
43.56000 180.000
43.58000 210.000
43.60000 201.000
43.62000 171.000
43.64000 212.000
43.66000 178.000
43.68000 194.000
43.70000 163.000
43.72000 169.000
43.74000 180.000
43.76000 191.000
43.78000 183.000
43.80000 190.000
43.82000 193.000
43.84000 205.000
43.86000 232.000
43.88000 194.000
43.90000 213.000
43.92000 222.000
43.94000 230.000
43.96000 218.000
43.98000 222.000
44.00000 216.000
44.02000 236.000
44.04000 218.000
44.06000 203.000
44.08000 204.000
44.10000 218.000
44.12000 214.000
44.14000 209.000
44.16000 201.000
44.18000 173.000
44.20000 211.000
44.22000 184.000
44.24000 151.000
44.26000 178.000
44.28000 170.000
44.30000 196.000
44.32000 165.000
44.34000 171.000
44.36000 171.000
44.38000 156.000
44.40000 151.000
44.42000 155.000
44.44000 171.000
44.46000 151.000
44.48000 164.000
44.50000 149.000
44.52000 150.000
44.54000 138.000
44.56000 142.000
44.58000 169.000
44.60000 156.000
44.62000 148.000
44.64000 157.000
44.66000 140.000
44.68000 143.000
44.70000 182.000
44.72000 129.000
44.74000 145.000
44.76000 144.000
44.78000 130.000
44.80000 141.000
44.82000 157.000
44.84000 143.000
44.86000 175.000
44.88000 170.000
44.90000 145.000
44.92000 165.000
44.94000 173.000
44.96000 169.000
44.98000 154.000
45.00000 167.000
45.02000 150.000
45.04000 172.000
45.06000 153.000
45.08000 176.000
45.10000 171.000
45.12000 157.000
45.14000 180.000
45.16000 187.000
45.18000 188.000
45.20000 184.000
45.22000 185.000
45.24000 207.000
45.26000 195.000
45.28000 178.000
45.30000 202.000
45.32000 182.000
45.34000 182.000
45.36000 172.000
45.38000 174.000
45.40000 185.000
45.42000 169.000
45.44000 173.000
45.46000 196.000
45.48000 180.000
45.50000 160.000
45.52000 174.000
45.54000 176.000
45.56000 160.000
45.58000 160.000
45.60000 147.000
45.62000 173.000
45.64000 157.000
45.66000 166.000
45.68000 179.000
45.70000 155.000
45.72000 170.000
45.74000 176.000
45.76000 152.000
45.78000 155.000
45.80000 192.000
45.82000 163.000
45.84000 167.000
45.86000 193.000
45.88000 174.000
45.90000 192.000
45.92000 195.000
45.94000 206.000
45.96000 224.000
45.98000 277.000
46.00000 272.000
46.02000 315.000
46.04000 387.000
46.06000 468.000
46.08000 483.000
46.10000 527.000
46.12000 487.000
46.14000 516.000
46.16000 476.000
46.18000 466.000
46.20000 403.000
46.22000 364.000
46.24000 318.000
46.26000 269.000
46.28000 267.000
46.30000 220.000
46.32000 206.000
46.34000 200.000
46.36000 196.000
46.38000 176.000
46.40000 175.000
46.42000 177.000
46.44000 173.000
46.46000 174.000
46.48000 180.000
46.50000 153.000
46.52000 151.000
46.54000 168.000
46.56000 148.000
46.58000 165.000
46.60000 170.000
46.62000 156.000
46.64000 167.000
46.66000 169.000
46.68000 159.000
46.70000 142.000
46.72000 148.000
46.74000 153.000
46.76000 155.000
46.78000 151.000
46.80000 182.000
46.82000 179.000
46.84000 168.000
46.86000 167.000
46.88000 172.000
46.90000 164.000
46.92000 178.000
46.94000 209.000
46.96000 206.000
46.98000 253.000
47.00000 225.000
47.02000 265.000
47.04000 289.000
47.06000 318.000
47.08000 323.000
47.10000 336.000
47.12000 314.000
47.14000 306.000
47.16000 286.000
47.18000 293.000
47.20000 256.000
47.22000 221.000
47.24000 207.000
47.26000 173.000
47.28000 188.000
47.30000 169.000
47.32000 146.000
47.34000 171.000
47.36000 171.000
47.38000 142.000
47.40000 160.000
47.42000 140.000
47.44000 152.000
47.46000 171.000
47.48000 153.000
47.50000 152.000
47.52000 153.000
47.54000 145.000
47.56000 161.000
47.58000 176.000
47.60000 163.000
47.62000 180.000
47.64000 136.000
47.66000 130.000
47.68000 161.000
47.70000 156.000
47.72000 150.000
47.74000 170.000
47.76000 167.000
47.78000 151.000
47.80000 175.000
47.82000 169.000
47.84000 189.000
47.86000 157.000
47.88000 164.000
47.90000 143.000
47.92000 157.000
47.94000 168.000
47.96000 172.000
47.98000 162.000
48.00000 187.000
48.02000 174.000
48.04000 157.000
48.06000 153.000
48.08000 163.000
48.10000 149.000
48.12000 160.000
48.14000 164.000
48.16000 164.000
48.18000 145.000
48.20000 124.000
48.22000 155.000
48.24000 158.000
48.26000 137.000
48.28000 169.000
48.30000 184.000
48.32000 176.000
48.34000 165.000
48.36000 130.000
48.38000 165.000
48.40000 138.000
48.42000 152.000
48.44000 150.000
48.46000 142.000
48.48000 143.000
48.50000 133.000
48.52000 127.000
48.54000 153.000
48.56000 165.000
48.58000 169.000
48.60000 176.000
48.62000 144.000
48.64000 183.000
48.66000 192.000
48.68000 195.000
48.70000 210.000
48.72000 224.000
48.74000 263.000
48.76000 258.000
48.78000 242.000
48.80000 282.000
48.82000 254.000
48.84000 270.000
48.86000 253.000
48.88000 261.000
48.90000 233.000
48.92000 206.000
48.94000 223.000
48.96000 178.000
48.98000 211.000
49.00000 197.000
49.02000 191.000
49.04000 174.000
49.06000 152.000
49.08000 175.000
49.10000 190.000
49.12000 166.000
49.14000 167.000
49.16000 198.000
49.18000 170.000
49.20000 166.000
49.22000 166.000
49.24000 152.000
49.26000 156.000
49.28000 180.000
49.30000 159.000
49.32000 178.000
49.34000 148.000
49.36000 189.000
49.38000 193.000
49.40000 171.000
49.42000 199.000
49.44000 201.000
49.46000 214.000
49.48000 225.000
49.50000 218.000
49.52000 260.000
49.54000 275.000
49.56000 332.000
49.58000 334.000
49.60000 354.000
49.62000 423.000
49.64000 441.000
49.66000 471.000
49.68000 445.000
49.70000 427.000
49.72000 427.000
49.74000 443.000
49.76000 370.000
49.78000 333.000
49.80000 316.000
49.82000 282.000
49.84000 239.000
49.86000 240.000
49.88000 251.000
49.90000 204.000
49.92000 218.000
49.94000 217.000
49.96000 207.000
49.98000 215.000
50.00000 211.000
50.02000 203.000
50.04000 231.000
50.06000 214.000
50.08000 192.000
50.10000 205.000
50.12000 205.000
50.14000 205.000
50.16000 206.000
50.18000 211.000
50.20000 186.000
50.22000 182.000
50.24000 183.000
50.26000 164.000
50.28000 185.000
50.30000 167.000
50.32000 169.000
50.34000 177.000
50.36000 165.000
50.38000 183.000
50.40000 151.000
50.42000 201.000
50.44000 152.000
50.46000 167.000
50.48000 195.000
50.50000 184.000
50.52000 185.000
50.54000 189.000
50.56000 215.000
50.58000 178.000
50.60000 196.000
50.62000 195.000
50.64000 199.000
50.66000 216.000
50.68000 193.000
50.70000 186.000
50.72000 191.000
50.74000 198.000
50.76000 199.000
50.78000 176.000
50.80000 192.000
50.82000 201.000
50.84000 210.000
50.86000 187.000
50.88000 193.000
50.90000 151.000
50.92000 151.000
50.94000 151.000
50.96000 160.000
50.98000 171.000
51.00000 185.000
51.02000 154.000
51.04000 182.000
51.06000 153.000
51.08000 141.000
51.10000 166.000
51.12000 172.000
51.14000 151.000
51.16000 152.000
51.18000 141.000
51.20000 171.000
51.22000 147.000
51.24000 159.000
51.26000 153.000
51.28000 140.000
51.30000 153.000
51.32000 169.000
51.34000 114.000
51.36000 125.000
51.38000 147.000
51.40000 131.000
51.42000 137.000
51.44000 141.000
51.46000 120.000
51.48000 141.000
51.50000 165.000
51.52000 125.000
51.54000 126.000
51.56000 174.000
51.58000 171.000
51.60000 165.000
51.62000 150.000
51.64000 162.000
51.66000 160.000
51.68000 141.000
51.70000 153.000
51.72000 169.000
51.74000 146.000
51.76000 136.000
51.78000 135.000
51.80000 134.000
51.82000 142.000
51.84000 124.000
51.86000 153.000
51.88000 137.000
51.90000 142.000
51.92000 122.000
51.94000 111.000
51.96000 152.000
51.98000 126.000
52.00000 165.000
52.02000 143.000
52.04000 127.000
52.06000 138.000
52.08000 144.000
52.10000 123.000
52.12000 126.000
52.14000 139.000
52.16000 149.000
52.18000 134.000
52.20000 131.000
52.22000 139.000
52.24000 139.000
52.26000 142.000
52.28000 128.000
52.30000 148.000
52.32000 111.000
52.34000 165.000
52.36000 125.000
52.38000 127.000
52.40000 133.000
52.42000 128.000
52.44000 144.000
52.46000 148.000
52.48000 148.000
52.50000 158.000
52.52000 124.000
52.54000 142.000
52.56000 159.000
52.58000 158.000
52.60000 138.000
52.62000 163.000
52.64000 144.000
52.66000 167.000
52.68000 156.000
52.70000 162.000
52.72000 150.000
52.74000 164.000
52.76000 175.000
52.78000 157.000
52.80000 189.000
52.82000 169.000
52.84000 189.000
52.86000 173.000
52.88000 190.000
52.90000 180.000
52.92000 173.000
52.94000 185.000
52.96000 172.000
52.98000 153.000
53.00000 173.000
53.02000 174.000
53.04000 164.000
53.06000 171.000
53.08000 141.000
53.10000 168.000
53.12000 143.000
53.14000 150.000
53.16000 147.000
53.18000 152.000
53.20000 145.000
53.22000 133.000
53.24000 154.000
53.26000 149.000
53.28000 133.000
53.30000 132.000
53.32000 154.000
53.34000 158.000
53.36000 157.000
53.38000 130.000
53.40000 151.000
53.42000 154.000
53.44000 168.000
53.46000 162.000
53.48000 171.000
53.50000 198.000
53.52000 191.000
53.54000 212.000
53.56000 234.000
53.58000 260.000
53.60000 287.000
53.62000 270.000
53.64000 340.000
53.66000 302.000
53.68000 329.000
53.70000 317.000
53.72000 276.000
53.74000 277.000
53.76000 237.000
53.78000 250.000
53.80000 243.000
53.82000 212.000
53.84000 223.000
53.86000 172.000
53.88000 192.000
53.90000 201.000
53.92000 170.000
53.94000 184.000
53.96000 165.000
53.98000 140.000
54.00000 163.000
54.02000 156.000
54.04000 157.000
54.06000 168.000
54.08000 151.000
54.10000 167.000
54.12000 139.000
54.14000 139.000
54.16000 129.000
54.18000 127.000
54.20000 131.000
54.22000 127.000
54.24000 120.000
54.26000 149.000
54.28000 134.000
54.30000 124.000
54.32000 125.000
54.34000 135.000
54.36000 126.000
54.38000 141.000
54.40000 139.000
54.42000 120.000
54.44000 126.000
54.46000 116.000
54.48000 137.000
54.50000 119.000
54.52000 125.000
54.54000 117.000
54.56000 137.000
54.58000 119.000
54.60000 112.000
54.62000 138.000
54.64000 129.000
54.66000 131.000
54.68000 127.000
54.70000 124.000
54.72000 126.000
54.74000 135.000
54.76000 130.000
54.78000 120.000
54.80000 112.000
54.82000 115.000
54.84000 114.000
54.86000 151.000
54.88000 134.000
54.90000 112.000
54.92000 126.000
54.94000 124.000
54.96000 143.000
54.98000 133.000
55.00000 144.000
55.02000 145.000
55.04000 152.000
55.06000 119.000
55.08000 136.000
55.10000 128.000
55.12000 117.000
55.14000 133.000
55.16000 163.000
55.18000 176.000
55.20000 161.000
55.22000 165.000
55.24000 147.000
55.26000 139.000
55.28000 159.000
55.30000 148.000
55.32000 165.000
55.34000 180.000
55.36000 155.000
55.38000 188.000
55.40000 161.000
55.42000 160.000
55.44000 163.000
55.46000 170.000
55.48000 147.000
55.50000 130.000
55.52000 164.000
55.54000 132.000
55.56000 143.000
55.58000 151.000
55.60000 164.000
55.62000 134.000
55.64000 141.000
55.66000 141.000
55.68000 152.000
55.70000 171.000
55.72000 145.000
55.74000 178.000
55.76000 150.000
55.78000 147.000
55.80000 163.000
55.82000 126.000
55.84000 143.000
55.86000 131.000
55.88000 127.000
55.90000 142.000
55.92000 118.000
55.94000 132.000
55.96000 141.000
55.98000 126.000
56.00000 134.000
56.02000 130.000
56.04000 126.000
56.06000 115.000
56.08000 114.000
56.10000 121.000
56.12000 113.000
56.14000 135.000
56.16000 106.000
56.18000 119.000
56.20000 124.000
56.22000 135.000
56.24000 142.000
56.26000 121.000
56.28000 120.000
56.30000 131.000
56.32000 114.000
56.34000 137.000
56.36000 133.000
56.38000 133.000
56.40000 141.000
56.42000 125.000
56.44000 142.000
56.46000 148.000
56.48000 133.000
56.50000 112.000
56.52000 135.000
56.54000 126.000
56.56000 149.000
56.58000 149.000
56.60000 168.000
56.62000 170.000
56.64000 148.000
56.66000 137.000
56.68000 142.000
56.70000 133.000
56.72000 140.000
56.74000 127.000
56.76000 114.000
56.78000 138.000
56.80000 133.000
56.82000 120.000
56.84000 117.000
56.86000 125.000
56.88000 127.000
56.90000 102.000
56.92000 123.000
56.94000 116.000
56.96000 121.000
56.98000 93.000
57.00000 126.000
57.02000 106.000
57.04000 115.000
57.06000 143.000
57.08000 127.000
57.10000 117.000
57.12000 125.000
57.14000 109.000
57.16000 112.000
57.18000 109.000
57.20000 110.000
57.22000 126.000
57.24000 116.000
57.26000 124.000
57.28000 136.000
57.30000 136.000
57.32000 111.000
57.34000 119.000
57.36000 121.000
57.38000 115.000
57.40000 123.000
57.42000 147.000
57.44000 125.000
57.46000 135.000
57.48000 149.000
57.50000 128.000
57.52000 151.000
57.54000 148.000
57.56000 164.000
57.58000 179.000
57.60000 148.000
57.62000 169.000
57.64000 164.000
57.66000 154.000
57.68000 154.000
57.70000 169.000
57.72000 170.000
57.74000 188.000
57.76000 186.000
57.78000 169.000
57.80000 166.000
57.82000 150.000
57.84000 178.000
57.86000 151.000
57.88000 158.000
57.90000 154.000
57.92000 177.000
57.94000 147.000
57.96000 159.000
57.98000 131.000
58.00000 126.000
58.02000 170.000
58.04000 142.000
58.06000 146.000
58.08000 134.000
58.10000 135.000
58.12000 140.000
58.14000 141.000
58.16000 147.000
58.18000 139.000
58.20000 137.000
58.22000 135.000
58.24000 178.000
58.26000 149.000
58.28000 168.000
58.30000 132.000
58.32000 149.000
58.34000 164.000
58.36000 158.000
58.38000 166.000
58.40000 161.000
58.42000 187.000
58.44000 189.000
58.46000 175.000
58.48000 192.000
58.50000 213.000
58.52000 208.000
58.54000 192.000
58.56000 218.000
58.58000 222.000
58.60000 214.000
58.62000 238.000
58.64000 270.000
58.66000 247.000
58.68000 267.000
58.70000 273.000
58.72000 357.000
58.74000 324.000
58.76000 368.000
58.78000 428.000
58.80000 466.000
58.82000 542.000
58.84000 570.000
58.86000 673.000
58.88000 640.000
58.90000 714.000
58.92000 652.000
58.94000 648.000
58.96000 557.000
58.98000 532.000
59.00000 454.000
59.02000 401.000
59.04000 413.000
59.06000 339.000
59.08000 310.000
59.10000 264.000
59.12000 214.000
59.14000 164.000
59.16000 155.000
59.18000 161.000
59.20000 155.000
59.22000 158.000
59.24000 173.000
59.26000 157.000
59.28000 157.000
59.30000 173.000
59.32000 165.000
59.34000 159.000
59.36000 207.000
59.38000 205.000
59.40000 185.000
59.42000 235.000
59.44000 258.000
59.46000 261.000
59.48000 303.000
59.50000 250.000
59.52000 294.000
59.54000 301.000
59.56000 289.000
59.58000 278.000
59.60000 284.000
59.62000 236.000
59.64000 262.000
59.66000 223.000
59.68000 228.000
59.70000 218.000
59.72000 203.000
59.74000 190.000
59.76000 151.000
59.78000 157.000
59.80000 165.000
59.82000 160.000
59.84000 128.000
59.86000 133.000
59.88000 136.000
59.90000 133.000
59.92000 121.000
59.94000 127.000
59.96000 138.000
59.98000 141.000
60.00000 135.000
60.02000 130.000
60.04000 127.000
60.06000 131.000
60.08000 151.000
60.10000 145.000
60.12000 128.000
60.14000 156.000
60.16000 168.000
60.18000 161.000
60.20000 178.000
60.22000 172.000
60.24000 153.000
60.26000 163.000
60.28000 166.000
60.30000 167.000
60.32000 172.000
60.34000 163.000
60.36000 143.000
60.38000 143.000
60.40000 139.000
60.42000 142.000
60.44000 145.000
60.46000 133.000
60.48000 157.000
60.50000 131.000
60.52000 129.000
60.54000 134.000
60.56000 137.000
60.58000 108.000
60.60000 132.000
60.62000 133.000
60.64000 112.000
60.66000 123.000
60.68000 115.000
60.70000 121.000
60.72000 105.000
60.74000 110.000
60.76000 103.000
60.78000 96.000
60.80000 95.000
60.82000 115.000
60.84000 121.000
60.86000 105.000
60.88000 107.000
60.90000 103.000
60.92000 104.000
60.94000 109.000
60.96000 117.000
60.98000 92.000
61.00000 98.000
61.02000 114.000
61.04000 83.000
61.06000 99.000
61.08000 85.000
61.10000 100.000
61.12000 95.000
61.14000 93.000
61.16000 96.000
61.18000 99.000
61.20000 113.000
61.22000 94.000
61.24000 85.000
61.26000 115.000
61.28000 120.000
61.30000 130.000
61.32000 106.000
61.34000 100.000
61.36000 88.000
61.38000 122.000
61.40000 111.000
61.42000 118.000
61.44000 137.000
61.46000 108.000
61.48000 122.000
61.50000 143.000
61.52000 127.000
61.54000 113.000
61.56000 113.000
61.58000 136.000
61.60000 133.000
61.62000 123.000
61.64000 117.000
61.66000 120.000
61.68000 131.000
61.70000 147.000
61.72000 121.000
61.74000 124.000
61.76000 111.000
61.78000 128.000
61.80000 122.000
61.82000 117.000
61.84000 116.000
61.86000 123.000
61.88000 137.000
61.90000 125.000
61.92000 129.000
61.94000 127.000
61.96000 118.000
61.98000 119.000
62.00000 132.000
62.02000 120.000
62.04000 111.000
62.06000 123.000
62.08000 116.000
62.10000 108.000
62.12000 136.000
62.14000 112.000
62.16000 138.000
62.18000 105.000
62.20000 117.000
62.22000 108.000
62.24000 112.000
62.26000 120.000
62.28000 101.000
62.30000 97.000
62.32000 109.000
62.34000 117.000
62.36000 107.000
62.38000 106.000
62.40000 130.000
62.42000 119.000
62.44000 113.000
62.46000 125.000
62.48000 116.000
62.50000 123.000
62.52000 117.000
62.54000 124.000
62.56000 113.000
62.58000 111.000
62.60000 123.000
62.62000 135.000
62.64000 125.000
62.66000 138.000
62.68000 111.000
62.70000 123.000
62.72000 97.000
62.74000 114.000
62.76000 123.000
62.78000 103.000
62.80000 112.000
62.82000 109.000
62.84000 102.000
62.86000 93.000
62.88000 86.000
62.90000 97.000
62.92000 99.000
62.94000 87.000
62.96000 113.000
62.98000 72.000
63.00000 122.000
63.02000 96.000
63.04000 100.000
63.06000 104.000
63.08000 107.000
63.10000 82.000
63.12000 72.000
63.14000 90.000
63.16000 98.000
63.18000 101.000
63.20000 120.000
63.22000 87.000
63.24000 91.000
63.26000 87.000
63.28000 103.000
63.30000 95.000
63.32000 88.000
63.34000 98.000
63.36000 78.000
63.38000 99.000
63.40000 91.000
63.42000 116.000
63.44000 115.000
63.46000 99.000
63.48000 112.000
63.50000 89.000
63.52000 84.000
63.54000 117.000
63.56000 108.000
63.58000 136.000
63.60000 103.000
63.62000 107.000
63.64000 115.000
63.66000 100.000
63.68000 121.000
63.70000 126.000
63.72000 113.000
63.74000 90.000
63.76000 86.000
63.78000 111.000
63.80000 99.000
63.82000 98.000
63.84000 84.000
63.86000 96.000
63.88000 105.000
63.90000 121.000
63.92000 102.000
63.94000 106.000
63.96000 97.000
63.98000 111.000
64.00000 114.000
64.02000 108.000
64.04000 115.000
64.06000 93.000
64.08000 107.000
64.10000 119.000
64.12000 123.000
64.14000 114.000
64.16000 104.000
64.18000 119.000
64.20000 101.000
64.22000 104.000
64.24000 114.000
64.26000 105.000
64.28000 106.000
64.30000 89.000
64.32000 121.000
64.34000 129.000
64.36000 126.000
64.38000 117.000
64.40000 113.000
64.42000 141.000
64.44000 147.000
64.46000 149.000
64.48000 162.000
64.50000 181.000
64.52000 191.000
64.54000 189.000
64.56000 205.000
64.58000 251.000
64.60000 244.000
64.62000 246.000
64.64000 260.000
64.66000 265.000
64.68000 260.000
64.70000 236.000
64.72000 226.000
64.74000 228.000
64.76000 192.000
64.78000 180.000
64.80000 176.000
64.82000 170.000
64.84000 151.000
64.86000 140.000
64.88000 112.000
64.90000 141.000
64.92000 105.000
64.94000 119.000
64.96000 114.000
64.98000 102.000
65.00000 100.000
65.02000 124.000
65.04000 120.000
65.06000 130.000
65.08000 135.000
65.10000 134.000
65.12000 147.000
65.14000 154.000
65.16000 150.000
65.18000 169.000
65.20000 210.000
65.22000 150.000
65.24000 138.000
65.26000 167.000
65.28000 141.000
65.30000 135.000
65.32000 167.000
65.34000 133.000
65.36000 119.000
65.38000 129.000
65.40000 124.000
65.42000 105.000
65.44000 114.000
65.46000 107.000
65.48000 105.000
65.50000 99.000
65.52000 100.000
65.54000 116.000
65.56000 97.000
65.58000 104.000
65.60000 94.000
65.62000 102.000
65.64000 105.000
65.66000 91.000
65.68000 97.000
65.70000 103.000
65.72000 95.000
65.74000 90.000
65.76000 102.000
65.78000 86.000
65.80000 101.000
65.82000 82.000
65.84000 94.000
65.86000 101.000
65.88000 103.000
65.90000 96.000
65.92000 101.000
65.94000 90.000
65.96000 103.000
65.98000 103.000
66.00000 108.000
66.02000 90.000
66.04000 92.000
66.06000 93.000
66.08000 88.000
66.10000 86.000
66.12000 72.000
66.14000 89.000
66.16000 92.000
66.18000 97.000
66.20000 89.000
66.22000 102.000
66.24000 97.000
66.26000 94.000
66.28000 83.000
66.30000 86.000
66.32000 80.000
66.34000 84.000
66.36000 80.000
66.38000 105.000
66.40000 105.000
66.42000 114.000
66.44000 105.000
66.46000 83.000
66.48000 114.000
66.50000 115.000
66.52000 90.000
66.54000 100.000
66.56000 89.000
66.58000 99.000
66.60000 106.000
66.62000 113.000
66.64000 122.000
66.66000 88.000
66.68000 107.000
66.70000 102.000
66.72000 105.000
66.74000 96.000
66.76000 100.000
66.78000 98.000
66.80000 91.000
66.82000 113.000
66.84000 100.000
66.86000 119.000
66.88000 86.000
66.90000 98.000
66.92000 121.000
66.94000 94.000
66.96000 111.000
66.98000 87.000
67.00000 97.000
67.02000 93.000
67.04000 104.000
67.06000 92.000
67.08000 107.000
67.10000 94.000
67.12000 88.000
67.14000 92.000
67.16000 107.000
67.18000 87.000
67.20000 76.000
67.22000 93.000
67.24000 94.000
67.26000 100.000
67.28000 94.000
67.30000 71.000
67.32000 87.000
67.34000 104.000
67.36000 96.000
67.38000 91.000
67.40000 89.000
67.42000 97.000
67.44000 97.000
67.46000 113.000
67.48000 102.000
67.50000 98.000
67.52000 99.000
67.54000 125.000
67.56000 100.000
67.58000 142.000
67.60000 108.000
67.62000 122.000
67.64000 103.000
67.66000 131.000
67.68000 110.000
67.70000 138.000
67.72000 109.000
67.74000 109.000
67.76000 130.000
67.78000 114.000
67.80000 130.000
67.82000 112.000
67.84000 119.000
67.86000 133.000
67.88000 133.000
67.90000 114.000
67.92000 126.000
67.94000 128.000
67.96000 127.000
67.98000 125.000
68.00000 134.000
68.02000 108.000
68.04000 109.000
68.06000 116.000
68.08000 111.000
68.10000 104.000
68.12000 118.000
68.14000 126.000
68.16000 109.000
68.18000 118.000
68.20000 116.000
68.22000 127.000
68.24000 113.000
68.26000 121.000
68.28000 97.000
68.30000 107.000
68.32000 99.000
68.34000 113.000
68.36000 108.000
68.38000 110.000
68.40000 103.000
68.42000 82.000
68.44000 83.000
68.46000 100.000
68.48000 95.000
68.50000 81.000
68.52000 72.000
68.54000 79.000
68.56000 90.000
68.58000 87.000
68.60000 79.000
68.62000 87.000
68.64000 85.000
68.66000 97.000
68.68000 85.000
68.70000 76.000
68.72000 76.000
68.74000 86.000
68.76000 85.000
68.78000 80.000
68.80000 99.000
68.82000 72.000
68.84000 83.000
68.86000 72.000
68.88000 93.000
68.90000 85.000
68.92000 78.000
68.94000 76.000
68.96000 94.000
68.98000 83.000
69.00000 96.000
69.02000 94.000
69.04000 92.000
69.06000 99.000
69.08000 111.000
69.10000 97.000
69.12000 92.000
69.14000 104.000
69.16000 107.000
69.18000 95.000
69.20000 97.000
69.22000 107.000
69.24000 108.000
69.26000 112.000
69.28000 105.000
69.30000 117.000
69.32000 92.000
69.34000 111.000
69.36000 124.000
69.38000 129.000
69.40000 134.000
69.42000 107.000
69.44000 108.000
69.46000 105.000
69.48000 103.000
69.50000 98.000
69.52000 118.000
69.54000 98.000
69.56000 87.000
69.58000 99.000
69.60000 87.000
69.62000 87.000
69.64000 100.000
69.66000 95.000
69.68000 92.000
69.70000 97.000
69.72000 83.000
69.74000 89.000
69.76000 92.000
69.78000 98.000
69.80000 70.000
69.82000 94.000
69.84000 82.000
69.86000 83.000
69.88000 98.000
69.90000 105.000
69.92000 97.000
69.94000 106.000
69.96000 110.000
69.98000 97.000
70.00000 83.000
70.02000 81.000
70.04000 89.000
70.06000 88.000
70.08000 87.000
70.10000 106.000
70.12000 108.000
70.14000 91.000
70.16000 96.000
70.18000 96.000
70.20000 79.000
70.22000 96.000
70.24000 88.000
70.26000 91.000
70.28000 94.000
70.30000 113.000
70.32000 81.000
70.34000 79.000
70.36000 84.000
70.38000 105.000
70.40000 95.000
70.42000 81.000
70.44000 93.000
70.46000 97.000
70.48000 102.000
70.50000 117.000
70.52000 111.000
70.54000 111.000
70.56000 113.000
70.58000 117.000
70.60000 113.000
70.62000 116.000
70.64000 156.000
70.66000 143.000
70.68000 139.000
70.70000 176.000
70.72000 206.000
70.74000 214.000
70.76000 245.000
70.78000 294.000
70.80000 352.000
70.82000 372.000
70.84000 407.000
70.86000 446.000
70.88000 449.000
70.90000 474.000
70.92000 402.000
70.94000 385.000
70.96000 334.000
70.98000 319.000
71.00000 291.000
71.02000 319.000
71.04000 298.000
71.06000 296.000
71.08000 249.000
71.10000 242.000
71.12000 176.000
71.14000 168.000
71.16000 136.000
71.18000 154.000
71.20000 149.000
71.22000 127.000
71.24000 117.000
71.26000 115.000
71.28000 115.000
71.30000 109.000
71.32000 114.000
71.34000 123.000
71.36000 114.000
71.38000 117.000
71.40000 105.000
71.42000 114.000
71.44000 104.000
71.46000 98.000
71.48000 116.000
71.50000 89.000
71.52000 111.000
71.54000 84.000
71.56000 89.000
71.58000 82.000
71.60000 106.000
71.62000 94.000
71.64000 97.000
71.66000 82.000
71.68000 110.000
71.70000 95.000
71.72000 113.000
71.74000 96.000
71.76000 77.000
71.78000 79.000
71.80000 74.000
71.82000 79.000
71.84000 101.000
71.86000 90.000
71.88000 103.000
71.90000 99.000
71.92000 99.000
71.94000 103.000
71.96000 102.000
71.98000 95.000
72.00000 98.000
72.02000 91.000
72.04000 83.000
72.06000 81.000
72.08000 86.000
72.10000 98.000
72.12000 76.000
72.14000 80.000
72.16000 88.000
72.18000 82.000
72.20000 99.000
72.22000 88.000
72.24000 112.000
72.26000 86.000
72.28000 85.000
72.30000 108.000
72.32000 101.000
72.34000 91.000
72.36000 93.000
72.38000 91.000
72.40000 112.000
72.42000 99.000
72.44000 106.000
72.46000 107.000
72.48000 91.000
72.50000 95.000
72.52000 120.000
72.54000 113.000
72.56000 95.000
72.58000 82.000
72.60000 92.000
72.62000 104.000
72.64000 106.000
72.66000 83.000
72.68000 123.000
72.70000 110.000
72.72000 98.000
72.74000 94.000
72.76000 98.000
72.78000 90.000
72.80000 88.000
72.82000 106.000
72.84000 85.000
72.86000 93.000
72.88000 105.000
72.90000 100.000
72.92000 103.000
72.94000 84.000
72.96000 104.000
72.98000 87.000
73.00000 113.000
73.02000 99.000
73.04000 101.000
73.06000 92.000
73.08000 112.000
73.10000 115.000
73.12000 121.000
73.14000 115.000
73.16000 120.000
73.18000 118.000
73.20000 138.000
73.22000 117.000
73.24000 147.000
73.26000 104.000
73.28000 122.000
73.30000 133.000
73.32000 140.000
73.34000 135.000
73.36000 146.000
73.38000 148.000
73.40000 149.000
73.42000 152.000
73.44000 142.000
73.46000 155.000
73.48000 138.000
73.50000 136.000
73.52000 138.000
73.54000 122.000
73.56000 152.000
73.58000 134.000
73.60000 117.000
73.62000 134.000
73.64000 112.000
73.66000 118.000
73.68000 118.000
73.70000 100.000
73.72000 106.000
73.74000 96.000
73.76000 116.000
73.78000 106.000
73.80000 91.000
73.82000 124.000
73.84000 96.000
73.86000 102.000
73.88000 84.000
73.90000 107.000
73.92000 85.000
73.94000 99.000
73.96000 90.000
73.98000 109.000
74.00000 77.000
74.02000 87.000
74.04000 84.000
74.06000 83.000
74.08000 84.000
74.10000 102.000
74.12000 105.000
74.14000 82.000
74.16000 86.000
74.18000 109.000
74.20000 92.000
74.22000 100.000
74.24000 94.000
74.26000 85.000
74.28000 91.000
74.30000 118.000
74.32000 85.000
74.34000 78.000
74.36000 95.000
74.38000 115.000
74.40000 97.000
74.42000 97.000
74.44000 86.000
74.46000 95.000
74.48000 113.000
74.50000 93.000
74.52000 93.000
74.54000 88.000
74.56000 110.000
74.58000 102.000
74.60000 80.000
74.62000 88.000
74.64000 99.000
74.66000 94.000
74.68000 89.000
74.70000 82.000
74.72000 82.000
74.74000 72.000
74.76000 108.000
74.78000 86.000
74.80000 81.000
74.82000 74.000
74.84000 90.000
74.86000 91.000
74.88000 91.000
74.90000 83.000
74.92000 92.000
74.94000 80.000
74.96000 90.000
74.98000 86.000
75.00000 89.000
